Raman Shift (cm-1),Fitted Intensity
307.71441355443676,0.00232668469650254
308.36391220437145,0.0023383486833119375
309.01336522421843,0.0023500995162745353
309.6969506915775,0.0023625635819972315
310.34631006473137,0.0023744953830435026
310.99562382247314,0.0023865166878807064
311.6790627139999,0.0023992683681618235
312.32828285516734,0.002411476199891742
312.9774573955983,0.002423776295067054
313.6607497584264,0.0024368244580649295
314.30983071238734,0.0024493168531299573
314.9588660802692,0.0024619043780288504
315.64201196152135,0.0024752582349016703
316.29095377302656,0.0024880440568176426
316.93985001311376,0.002500927986663556
317.58870068658143,0.0025139110251900776
318.27165217367656,0.002527685566154875
318.920409330698,0.0025408752277364098
319.5691209357501,0.0025541671325470592
320.25192605085977,0.002568270226365769
320.9005441695299,0.002581775314627204
321.54911675086987,0.0025953859050295174
322.2317755410477,0.0026098280242713534
322.8802546660554,0.0026236586198197906
323.52868826836857,0.0026375981067285562
324.2112007806463,0.002652390142720043
324.8595409566624,0.00266655673030815
325.5078356246195,0.002680835735060911
326.19020190600713,0.0026959890180586477
326.8384031776877,0.0027105025061049085
327.486558955934,0.002725132080336084
328.1687790534197,0.0027406584008378416
328.81684146540283,0.0027555301420510475
329.4648583985654,0.002770521788693782
330.14693235912273,0.0027864334199617933
330.7948559560209,0.0028016752331415373
331.4427340887123,0.00281704092863019
332.12466195928937,0.0028333506505051507
332.7724467857006,0.002848974843595787
333.4201861625079,0.002864727061347549
334.10196799003825,0.0028814481854391692
334.74961409053867,0.002897467579919043
335.3972147560344,0.002913619315180142
336.07885058742613,0.0029307657115244614
336.7263580065737,0.0029471936682198764
337.3738200053085,0.00296375846436634
338.05530988745886,0.0029813445896490053
338.70267866978975,0.0029981950360679563
339.3500020462998,0.0030151870124594943
340.03134602607315,0.0030332279399089266
340.67857621611256,0.003050515399197834
341.3257610149085,0.0030679492806891893
342.00695913915115,0.0030864607317549583
342.6540507814025,0.003104200353387985
343.30109704698043,0.0031220915016120137
343.98214936252407,0.003141089879549445
344.62910250146524,0.0031592974718701538
345.2760102782995,0.003177661918413551
345.95691683195764,0.0031971643439062665
346.60373151205204,0.0032158564086500843
347.25050084460236,0.0032347108902540753
347.93126168316303,0.003254735239216445
348.57793794885583,0.0032739290081514358
349.2245688815601,0.0032932910040783694
349.9051840517932,0.003313855947791479
350.55172194750776,0.0033335694216269614
351.1982145247821,0.0033534571933463587
351.8786840734356,0.003374582241091956
352.52508364358073,0.003394834230816353
353.17143790982664,0.0034152668641756036
353.851761883634,0.0034369724085470846
354.4980231725931,0.0034577825793680765
355.1442391721903,0.0034787800294255196
355.8244176178596,0.0035010873945078404
356.47054067000136,0.003522476312584049
357.116618447315,0.0035440594512982414
357.796651411536,0.003566990943926349
358.4426362712111,0.0035889801260927975
359.0885758705808,0.0036111707930755774
359.73447021440006,0.0036335653977245847
360.4143101115624,0.0036573617241039756
361.06011157731336,0.0036801827806645167
361.7058678020294,0.0037032154957173167
362.3855623263371,0.003727691987954233
363.03122570277264,0.0037511673746774333
363.6768438526851,0.0037748625074285292
364.3563930507662,0.0038000451557113216
365.00191838217506,0.003824199953836866
365.64739850156184,0.0038485829732163314
366.3268024200188,0.0038744990136679557
366.97218975066426,0.003899359510556543
367.6175318837886,0.003924457114002673
368.29679056920577,0.003951135100629454
368.94203994333657,0.003976728859629918
369.58724413443633,0.004002569044469314
370.26635763338345,0.004030038925974957
370.9114690952265,0.004056394861029976
371.5565353885286,0.004083007000715259
372.2355037475427,0.004111300202556658
372.88047734131396,0.004138448657917114
373.52540578101616,0.004165863583498958
374.20422904662337,0.0041950130955966175
374.8490648165134,0.004222985931043928
375.49385544680626,0.004251236018292651
376.1725336655036,0.004281276488839103
376.81723165568474,0.004310107170853998
377.4618845207333,0.004339226433476388
378.14041773901045,0.004370194269332324
378.78497799363686,0.004399917968684529
379.429493137588,0.004429942158127874
380.10788140190925,0.004461875632332724
380.75230396511324,0.004492529328610204
381.3966814320993,0.004523496040985829
382.0749247889071,0.004556435407963771
382.7192097048028,0.004588058001607819
383.3634495389306,0.00462000679231588
384.0415480346528,0.004653994411407857
384.6856953473434,0.004686626843871747
385.32979759270165,0.004719599350564791
386.0077512737407,0.004754679818575253
386.6517610273004,0.004788365201280131
387.29572572796314,0.004822405275859677
387.97353464070693,0.004858625569374152
388.61740687919155,0.004893409322203362
389.2612340792148,0.00492856317260989
389.9388982700257,0.004965972800906607
390.58263303748026,0.0050019028010452595
391.22632278089804,0.005038219143674774
391.9038422961203,0.005076870313136341
392.547439636568,0.00511399705514091
393.190991967389,0.0051515272788007225
393.86836685335584,0.005191475069815947
394.51182681079445,0.005229851837886279
395.1552417730236,0.005268650180292627
395.832472076032,0.0053099527377336924
396.47579469444827,0.00534963579125396
397.1190723320615,0.005389759529166144
397.7961580983974,0.0054324782676398765
398.43934342176,0.0054735270411568025
399.08248377871496,0.005515036695360142
399.7594250546499,0.005559236520540996
400.4024731269019,0.005601713839467598
401.04547624713814,0.005644673395930418
401.6884344200698,0.005688122451863481
402.3651839439881,0.005734395256882198
403.0080498714269,0.0057788724055492045
403.6508708659494,0.005823862076362396
404.3274760070817,0.005871781931237868
404.9702047856299,0.005917848324070744
405.6128886456281,0.005964451619230442
406.2893494501732,0.006014096876366663
406.931941123712,0.006061828406406713
407.5744878930782,0.006110122672775239
408.2508044072092,0.006161576357096336
408.89325901960547,0.006211053460512575
409.53566874219905,0.006261120692382294
410.211841012082,0.006314470836584074
410.8541586071806,0.006365778819870477
411.4964313268356,0.006417705994910141
412.17245939861095,0.006473046002829042
412.81464002024586,0.006526275397550145
413.4567757807854,0.006580154841138418
414.13265970057546,0.006637583881941239
414.7747033925516,0.006692830829675803
415.41670223778056,0.0067487606103636116
416.09244205168943,0.006808384046545719
416.73434885779716,0.006865750716974335
417.37621083150225,0.006923835076120742
418.0518065856122,0.006985764928629423
418.6935765496237,0.007045359974025006
419.33530169556616,0.007105709792982168
420.01075343593766,0.007170065247148012
420.6523866016105,0.007232004296895593
421.2939749635407,0.007294737605497537
421.9692827362196,0.007361645561867338
422.6107791472823,0.007426051761040846
423.2522307689287,0.007491294291565453
423.92739461993915,0.007560889966189224
424.5687543201093,0.007627894562676637
425.21006924518224,0.0076957803539327765
425.8850892205264,0.007768207933181806
426.5263122535034,0.007837950918354293
427.1674905256914,0.007908622975075807
427.842366671357,0.007984036330654228
428.48345308081844,0.008056667139164876
429.124494743799,0.008130278152503886
429.79922710574465,0.00820884162297906
430.4401769353535,0.008284519897936188
431.0810820327788,0.008361233033531758
431.75567065695213,0.008443122279478528
432.39648395034965,0.008522018709991827
433.03725252585355,0.008602008470893088
433.71169745818406,0.00868741141161247
434.3523742589896,0.00876970865059401
434.9930063561915,0.008853161823235225
435.6673076425832,0.008942279664049509
436.30784799440517,0.00902817333519165
436.94834365689894,0.0091152900277268
437.6225013432377,0.009208338388102373
438.26290528966274,0.009298038192227557
438.90326456103503,0.009389032975918823
439.57727869318114,0.009486243130242964
440.2175462777777,0.009579974062873801
440.85776920158605,0.009675077229023084
441.53163982539263,0.009776697473986596
442.1717710917037,0.009874701168227643
442.81185771149467,0.009974160115691551
443.4518996894294,0.01007510285258473
444.1255798643506,0.010182993493369106
444.7655302236417,0.010287074265460532
445.40543595533745,0.010392730316486118
446.0789727285555,0.010505683651198142
446.718786870857,0.010614672646793917
447.35855639980946,0.010725335485101118
448.03194981711204,0.010843668310800872
448.67162778590864,0.010957874204347335
449.3112611555989,0.011073860261066248
449.9845112627445,0.011197914311426933
450.62405310151007,0.011317670233287466
451.26355035539746,0.011439321178683447
451.9366571981336,0.011569465644925498
452.5760629503129,0.011695131702003635
453.21542413184943,0.01182281710235683
453.8883877558983,0.011959451594630398
454.5276574649215,0.012091417859675302
455.16688261753006,0.012225538360498911
455.83970306859555,0.012369096496795828
456.47883677788195,0.012507786676212466
457.11792594496364,0.012648777958659879
457.79060326873514,0.012799731888279903
458.4296010216749,0.012945608012930081
459.0685542466272,0.013093945928335437
459.74108848876494,0.013252812292728297
460.3799503287337,0.013406380994458653
461.01876765492125,0.013562588536332932
461.69115886107465,0.013729936682747065
462.3298848314371,0.013891757964999321
462.96856630221373,0.014056415137496727
463.64081451800666,0.014232878887750459
464.27940466209475,0.014403578832275032
464.91795032079244,0.014577337085729178
465.5900555918379,0.014763632100660213
466.2285099529763,0.014943921753722696
466.86691984291247,0.015127525567466748
467.5388822147943,0.015324475434243492
468.1772008362859,0.015515179282903253
468.8154750007525,0.015709498786464805
469.48729451904,0.0159180745045033
470.1254774441695,0.016120173597626408
470.7636159264475,0.016326253946109037
471.4352926366919,0.016547633615678164
472.0733399087185,0.016762330614370394
472.7113427520708,0.01698146627576015
473.38287669979763,0.017217124600538182
474.0207883619769,0.01744594093913553
474.65865560964085,0.017679786172909422
475.33004684036496,0.017931626914206692
475.9678229359197,0.01817654582404286
476.60555463111814,0.01842727640394222
477.27680319033243,0.018697825093735836
477.9144437624782,0.01896149836242324
478.55203994841577,0.019232043836077115
479.2231458815877,0.019524722598404702
479.86065097351093,0.01981076326969531
480.4981116933777,0.02010513332819068
481.1690750459602,0.020424644019513726
481.8064447008437,0.020738031146249565
482.4437699978007,0.021061763244036025
483.11459081522844,0.02141460837472249
483.7518250762223,0.021762232402441527
484.3890149934232,0.02212298946759384
485.0261605714659,0.02249800539308327
485.69679223135245,0.022909538078077968
486.3338468119291,0.02331788340010848
486.9708570674702,0.02374473684253876
487.64134629787804,0.024215924360612234
488.2782655849405,0.02468629357690874
488.9151405610901,0.0251809344426142
489.5854874073884,0.025730348451465917
490.22227144403223,0.026282223815260734
490.85901118387847,0.02686607494960879
491.5292156914147,0.02751852900766472
492.1658645207208,0.02817779679422263
492.8024690673301,0.028879161588353484
493.4725312814371,0.02966723908189645
494.1090449464573,0.03046767571828773
494.74551434288514,0.031323247058509675
495.41543430887396,0.032288900354068534
496.0518128526528,0.03327368661345546
496.6881471419292,0.03433003925159255
497.3579249050963,0.03552611636586318
497.9941683706493,0.03674922379573131
498.630367595797,0.038064115017275954
499.3000032014097,0.03955560837577478
499.93611163174137,0.041082842831453484
500.5721758357504,0.04272608722228613
501.2416693290652,0.044590838200525465
501.87764276716916,0.04650026989512687
502.51357199301856,0.04855390207109551
503.18292341926644,0.050882445563559905
503.8187619081,0.05326391446303222
504.4545561987579,0.05582132073844637
505.12376560315533,0.0587155293304671
505.7594691856684,0.0616689023164354
506.39512858407033,0.06483260216530295
507.0641960118155,0.06840280424785354
507.69976473093993,0.07203469011875183
508.33528928001033,0.0759124944826245
509.0042147762797,0.08027280844340468
509.63964867492905,0.08469152046105875
510.27503841757425,0.08939089711131482
510.94382202752604,0.09465265395699939
511.5791211485921,0.09996135412396912
512.2143761277039,0.1055819948660124
512.8830178964745,0.11184531603162112
513.5181822828308,0.11813347912465788
514.1533025412755,0.12475828479160506
514.8218025139868,0.132102131463256
515.4568322084924,0.13943571755960385
516.0918177891217,0.14712067801917442
516.7601760108737,0.1555919713251573
517.3950710563695,0.16400296836129352
518.029922002017,0.17276668740986695
518.6981385178879,0.18236938098992184
519.3328989571928,0.19184563758033946
519.9676153106775,0.2016594972989469
520.6356901657309,0.21234472079390831
521.2703160416495,0.22282118995649117
521.9048978457649,0.2336013203021462
522.5728310850463,0.24525985557265673
523.2073224403612,0.25661246613335675
523.8417697378827,0.26821473828585507
524.5095614064157,0.2806730945181599
525.1439182838949,0.29271641895153677
525.778231117587,0.3049355793098106
526.4124999120795,0.3173023556143745
527.0801037027704,0.3304464364253988
527.7142821153757,0.34302022386826625
528.3484165027767,0.3556447682185833
529.0158788274384,0.3689504064443419
529.6499228616813,0.3815690548442705
530.2839228847115,0.3941290020707525
530.9512437883131,0.40724518671641985
531.5851534868925,0.4195661420982084
532.2190191882546,0.43171217542807533
532.8861987157288,0.44426630628280983
533.5199741213473,0.45593334458002316
534.1537055437184,0.4673094691614111
534.8207437399906,0.4789297514283282
535.4543848953108,0.48959504977448276
536.0879820813607,0.49986122249877163
536.7548789913271,0.5102008392605002
537.3883859390007,0.5195480214811501
538.0218489313738,0.528403020157135
538.6886045999308,0.5371637307982139
539.3219773825913,0.5449295619290206
539.9553062239138,0.5521317080510523
540.6219206959177,0.5590843280958229
541.2551593561839,0.5650766412072504
541.8883540890674,0.5704599925944795
542.5548274093708,0.5754593172337723
543.1879319898399,0.5795689589493519
543.8209926568743,0.5830528916832282
544.4873248703007,0.5860450523348535
545.1202954135515,0.5882501405648072
545.7532220573121,0.589840843517439
546.4194132086741,0.5908618237276854
547.0522497572674,0.5912234036712474
547.6850424203112,0.5910066870675779
548.3510925543924,0.5901717354037554
548.9837951508744,0.5888209573281983
549.6164538757366,0.5869468823797072
550.2823630373132,0.584431789219737
550.9149317242081,0.5815499525056519
551.5474565534096,0.5782110515460525
552.2132247872287,0.574227616667904
552.8456596070464,0.5700217306567186
553.4780505830931,0.565427889110288
554.1436779338874,0.5601972521905217
554.7759789291158,0.5548750030641421
555.4082360944885,0.5492292814348853
556.0737226069723,0.542958104291733
556.7058898200812,0.5367076731109726
557.3380132172497,0.5301898801595462
558.0033589361192,0.5230598409191481
558.6353924095638,0.5160514207582751
559.2673820809723,0.5088403602705833
559.9325870509019,0.5010731031495815
560.5644868271193,0.49359116023330024
561.1963428151976,0.4861126365459889
561.8614070808471,0.4784251956746867
562.493173202256,0.47155908440020156
563.124895549412,0.4654794777503032
563.7898191554195,0.46043585645727914
564.4214516644206,0.4574881205499555
565.053040413055,0.4568694853213122
565.6845854058702,0.4589653327383577
566.3493223430087,0.4641938165449515
566.9807775354966,0.47163408382689603
567.6121889860442,0.4805256631081414
568.2767853673577,0.48981644324912615
568.9081070460561,0.4966406499372105
569.5393849966895,0.4995713303819138
570.2038408667613,0.49671971624991196
570.8350290740127,0.48744093716459547
571.4661735670597,0.471763115125286
572.1304889704443,0.4493464328964559
572.7615437485692,0.4241005957174573
573.3925548263542,0.39697857371382256
574.0567298075875,0.3684829263843712
574.6876511988885,0.3430621529010155
575.3185289037065,0.32025945543728385
575.9825635073103,0.2995493190915912
576.6133515540787,0.2829558808744239
577.2440959282103,0.2690041306115746
577.9079901986806,0.25662215662613885
578.5386449431826,0.2465128534941351
579.1692560288902,0.23756245124101966
579.8330100107123,0.22901815193951458
580.4635314951993,0.22148527923449354
581.0940093347308,0.21436512033196373
581.7576230723644,0.2072152187990875
582.3880113390696,0.20069633143380655
583.0183559746511,0.19441521660916136
583.6818295125377,0.18804361830009386
584.31208460368,0.18220931903703702
584.9422960775155,0.17658178536185704
585.6056294600858,0.1708756579679381
586.2357514178584,0.16565622683748527
586.8658297721449,0.16062769478588518
587.5290230438004,0.1555347392622751
588.1590119103821,0.1508807430768883
588.7889571872984,0.14640040992515924
589.452010392426,0.1418653698621967
590.081866209981,0.13772288641647643
590.7116784516729,0.13373587311114357
591.3745916346415,0.12970044865121044
592.0043144453157,0.12601403282340662
592.6339936939257,0.12246522045681368
593.2967668990932,0.11887210141323787
593.9263567450034,0.11558826875266653
594.5559030426521,0.11242533855536184
595.2185363143399,0.10922091186658467
595.8479932376067,0.10629026531808382
596.4774066263963,0.10346542576596938
597.139900008915,0.10060120306625447
597.7692240516226,0.09797945797577416
598.3985045736445,0.09545018486073197
599.0608581112901,0.09288331261227846
599.6900493155117,0.0905315607005846
600.3191970128246,0.08826067760850327
600.9814107498714,0.08595385481034878
601.6104691576656,0.08383835432414258
602.2394840723209,0.08179371816631388
602.9015580530286,0.0797147750937533
603.5304837064286,0.07780648400384675
604.1593658804595,0.07596046962744557
604.8213001490622,0.07408178806527431
605.4500930900904,0.0723557903137484
606.0788425655082,0.07068470461955764
606.7075485798232,0.06906635269114891
607.3692974368823,0.06741751685673018
607.997914255684,0.06590102210696032
608.626487627138,0.06443123793686976
609.2880968749887,0.06293259667394818
609.9165810791528,0.06155318569104309
610.5450218497172,0.06021528683049222
611.2064915325354,0.058850119847323704
611.8348431640225,0.057592660993380874
612.4631513756503,0.056372207388147376
613.1244815375903,0.0551260194273725
613.7527006383461,0.05397737404613231
614.3808763329762,0.052861808254298946
615.0420670181775,0.05172197409616438
615.6701536301225,0.05067068083342399
616.2981968496752,0.04964903233142469
616.9592481022555,0.04860450595968375
617.5872022673029,0.047640522736919176
618.2151130536804,0.04670316658171858
618.8760249177394,0.0457442439910113
619.5038466777769,0.04485873758386875
620.1316250728596,0.04399719749418686
620.7923975924859,0.043115322936766336
621.420086989383,0.04230049681080667
622.0477330350404,0.04150728372650215
622.7083662542937,0.040694890478935514
623.3359233299052,0.039943842908094676
623.9634370679887,0.039212321554910924
624.6239310309138,0.03846269988434985
625.2513558270766,0.03776930591014542
625.8787372994157,0.03709358341358843
626.5390920500431,0.036400769978239045
627.1663846085794,0.03575958218796764
627.7936338569816,0.035134414132673285
628.4538494393164,0.03449309839271914
629.0810098020265,0.03389926268648336
629.708126868296,0.03331997312567224
630.3682033263249,0.032725417417236814
630.995231534991,0.032174600871866944
631.6222164609026,0.03163701365040347
632.2821538385979,0.03108498439733787
632.9090499349913,0.030573313042893478
633.5359027623053,0.03007369243800251
634.1957011036211,0.029560400583658542
634.8224651294877,0.029084405426667258
635.4491858999463,0.028619404576806735
636.1088452488184,0.0281414537575902
636.7354772458893,0.027698023758830684
637.3620660012202,0.027264639686334288
638.021586401559,0.026818980984435418
638.6480864115474,0.026405321967379405
639.2745431934563,0.02600085624141152
639.9339246891614,0.025584748581473
640.5602927537657,0.025198347241493165
641.1866176039475,0.02482037150298417
641.8458602388964,0.024431346923935855
