Raman Shift (cm-1),Processed Intensity
159.26151312198635,0.0
162.17892251266312,0.0741042736545192
165.06070388440276,0.14326502644679934
167.97629817665074,0.20720641816249952
170.89098012548493,0.2662992237506433
173.77006778237046,0.3208927197725322
176.68293717714914,0.3707435660218828
179.59489550712533,0.4162064618448219
182.50594319967058,0.4574350536090432
185.38144153980102,0.4947584542222363
188.29068006676243,0.527974680189099
191.19900923170644,0.5574179795150133
194.07182265961455,0.583403076449981
196.97834519226308,0.6057575122602538
199.8839596359394,0.6248009384337341
202.75409191031576,0.6408342853434364
205.65790225025557,0.6610044533987404
208.5608057718964,0.6716793167794631
211.42826064439942,0.6768830221695946
214.32936258615155,0.681881168846205
217.22955897789507,0.6871726198382965
220.09434019320543,0.6773923461309216
222.9927375242005,0.6653339230810283
225.89023057112718,0.6681726958775018
228.75234186693342,0.662828582084701
231.64803836756255,0.6528528749704956
234.54283184768065,0.6438708854431917
237.4022769547155,0.6319689235265878
240.2952763983085,0.620603945663345
243.18737408261222,0.5964742429166731
246.04415672466348,0.576212449235905
248.93446287752522,0.5541072723236053
251.82386852998388,0.530774470496497
254.67799242389083,0.5074503725630491
257.565609045334,0.4908483520859353
260.41796602711474,0.47295815015421555
263.3037952786035,0.4470090586641913
266.18872612093764,0.4266234453993024
269.0384305290536,0.41137448548333333
271.9215764941182,0.3997897179559785
274.8038253026716,0.3810217708331821
277.65088083558294,0.35913499111118424
280.5313472549242,0.33872916015822124
283.37664243438485,0.32267602919971217
286.2553281173605,0.3100392439070811
289.13311872473423,0.2961701370329561
291.97577117291803,0.29217351947552406
294.85178352428557,0.27745933358927827
297.6926797004962,0.26178767998323627
300.5669154435891,0.25362870343645477
303.44025818556474,0.23576346708452417
306.2785177554506,0.2149886330883929
309.150086361853,0.20450961372224516
311.98659372863403,0.19730778215765146
314.85638984211255,0.17940067517053016
317.69114662786524,0.16392254680442356
320.55917188903913,0.14855168470818408
323.42630704161274,0.13614129336538647
326.25843576130865,0.1262806237662838
329.1238025236089,0.10862099836157887
331.9541847135806,0.09838068864219993
334.8177847211591,0.09062578485123529
337.6464219965019,0.07568806120048013
340.5082568828984,0.06401715379327302
343.3351508567066,0.05928543164611217
346.1952222534492,0.051209625443150775
349.0203745368344,0.03884921995654458
351.8786840734356,0.03370757657071503
354.7361080202609,0.04014728773120819
357.55864557949826,0.03450217931982514
360.4143101115624,0.02601136304397079
363.23511000427607,0.021231736675567995
366.08901674608205,0.025286232218926834
368.90808057645336,0.03525278615140766
371.7602311504961,0.03686393714496263
374.57756052071636,0.040685803661331184
377.42795654749716,0.04778377527782173
380.2435530577968,0.04770994901472653
383.0921961558306,0.04515686009489353
385.90606140446107,0.05373185079565008
388.7529531902692,0.06184215552103447
391.56508877352826,0.07189317956554202
394.41023086164205,0.07865731738395788
397.2206383738594,0.08457185351692419
400.0640323768239,0.090374685027685
402.8727134103756,0.09340531325955069
405.71436093876036,0.09679881446219335
408.5213170840616,0.10449047370517904
411.36121974646085,0.1131672455040309
414.16645259197685,0.10934152156755408
417.00461199500205,0.12415601407055138
419.8081231272481,0.13120276412322487
422.6107791472823,0.13552409101069124
425.446331879084,0.14831365687856043
428.2472685572284,0.16296648156631743
431.0810820327788,0.17747603921678515
433.88030095069917,0.18641262489639485
436.71237676973396,0.19990824796915416
439.5098795071426,0.2199045604890991
442.3402192674366,0.2319563409568646
445.1360074021177,0.24613540611551496
447.930943955329,0.2633090538350761
450.75868780728706,0.2891253729650102
453.5519121161087,0.31263505308437356
456.3779238904244,0.32583093658883977
459.1694375278166,0.33758313581708493
461.99371881542174,0.35446161348939353
464.7835233524238,0.36571268295106046
467.5724790401364,0.383141438689002
470.39417274803054,0.40362459311184823
473.18142168360646,0.4152312137610631
476.00138886887726,0.4276611014888057
478.7869326185464,0.43510457940694686
481.60517486533354,0.4457275025277003
484.3890149934232,0.4527496050386142
487.17200899273666,0.44870912580823763
489.9876719528438,0.457853100838105
492.76896466880135,0.46176695746993934
495.5829066375736,0.4650644216255753
498.3624996297294,0.4652502802567548
501.14124842855017,0.4800656368020579
503.9526170105346,0.4813782284437795
506.7296684166504,0.4844866473470425
509.505876786945,0.4973670424589158
512.3146755106209,0.501899252123763
515.0891888150436,0.5001533729281644
517.8962728359329,0.5051192396397217
520.6690926264382,0.5140792626551587
523.4410713071484,0.5244436405380537
526.2455913408958,0.5229644452071902
529.0158788274384,0.5183144487517038
531.785326356061,0.5239223801623418
534.5872859139781,0.5244504460940818
537.3550445639485,0.512552620485253
540.1219644057746,0.49612426372665924
542.9213669927594,0.48341856568493646
545.686600267225,0.4853207285270978
548.4509958812232,0.4705241902268859
551.2478449957853,0.46026363309492413
554.0105563494981,0.43914917747256904
556.805701690384,0.4232898290833452
559.5667303225964,0.4073255696359765
562.3269232040038,0.3869220589104639
565.0862807140293,0.3635186480507665
567.8780333537688,0.33855336168358185
570.6357112050464,0.3147125732628002
573.3925548263542,0.30007488614470473
576.1817644509756,0.28047160584361913
578.9369307080196,0.2658380991581892
581.6912638744288,0.2448143925887014
584.4779339570123,0.2376324949957001
587.2305920494691,0.217526384517297
589.9824181885451,0.20114896592768372
592.7665521958479,0.18421907425946182
595.5167055471175,0.1627261831980605
598.2660280801974,0.14762917593023325
601.0145201715131,0.13916523236771244
603.7952814999189,0.12307176322148543
606.5421038421155,0.10753730949374761
609.2880968749887,0.09472944496399795
612.0663301881068,0.0828856050861617
614.8106557483188,0.0802150743773027
617.554153129593,0.06323148450065358
620.2968227067649,0.056786027492096214
623.0716940541533,0.05369893696601536
625.8126991844802,0.05829559566319047
628.552877638358,0.0646135914841228
631.2922297897167,0.06363267955035377
634.0637452701958,0.06893585942858213
636.8014359932095,0.0708762045660788
639.5383015386324,0.08260525273100856
642.3073015987065,0.08779672479873692
645.0425079771339,0.09367846183897693
647.7768903008473,0.09546876439789576
650.5104489421938,0.10014706468650478
653.2431842732913,0.11173929138580138
656.0080062575216,0.12304654811866005
658.7390861754284,0.13803993220396749
661.4693439025905,0.1464551338532131
664.1987798102273,0.1535144470370503
666.9602641357596,0.1637088595052914
669.6880476268889,0.16710752461711983
672.4150104152941,0.17480050989951937
675.141152871307,0.18167720522994177
677.8993055782594,0.1889797992809457
680.6237986072192,0.19542517961644282
683.3474724178923,0.20202238609512171
686.0703273797008,0.20730057118974046
688.7923638618704,0.21239178987958574
691.5463630106569,0.2244385811609486
694.2667537902307,0.23049296719083215
696.9863272009134,0.23932319614122677
699.705083611032,0.24459111674057143
702.4230233886883,0.2611221041942007
705.1728783546314,0.2673528024428616
707.8891761429404,0.28046116211859545
710.6046584062024,0.29441484028328085
713.3193255116239,0.30490364019215194
716.033177826208,0.31744083784217536
718.7462157167283,0.3324705222051692
721.491111983778,0.34635703516557653
724.2025123243511,0.3560336793770777
726.9130993442814,0.3617515402616586
729.6228734094693,0.3716322257772806
732.3318348855792,0.38238508691034084
735.0399841380749,0.39739534106387087
737.7799351068679,0.4103660028767526
740.4864512328204,0.4214777155143633
743.1921562345997,0.4275374070577477
745.8970504767931,0.44068378682666626
748.6011343237551,0.45139665177457017
751.3044081396256,0.4640246223638702
754.0394271625555,0.47277514908726126
756.741072259374,0.48330013436418745
759.4419084205874,0.49172297079162547
762.1419360094733,0.5030914714438011
764.8411553890837,0.5095256429365602
767.539566922238,0.510999130694059
770.2371709715626,0.514874963539667
772.9339678994475,0.5191208624565737
775.6624349602753,0.520125035093277
778.3576090181923,0.5192024763546217
781.0519770449282,0.5186898077223119
783.7455394020071,0.5198188086663584
786.4382964507422,0.5135775413794903
789.1302485522319,0.5190360556855443
791.8213960673565,0.5182066315446722
794.5117393567816,0.5147374360948963
797.2012787809545,0.5161667496762434
799.922404211542,0.5143708289382666
802.6103273114531,0.510361204372608
805.2974476305062,0.5060885400988105
807.9837655282827,0.4999635791621874
810.6692813641639,0.49945751382507686
813.3539954973021,0.49657734980248863
816.037908286642,0.4990816041521043
818.7210200909067,0.49922126906090925
821.4033312686151,0.4984743718344289
824.0848421780756,0.49629585793881886
826.7655531773598,0.5023205721879579
829.4777478409233,0.5015387862897215
832.1568504666102,0.50368088065944
834.8351542594137,0.5103516965054562
837.5126595765614,0.5148119690982226
840.1893667750774,0.5168511880270046
842.8652762117599,0.5143198343787732
845.5403882432074,0.5103794833858194
848.2147032257963,0.5093683651712324
850.8882215157028,0.5109440005164134
853.5609434688704,0.5081385717791447
856.2328694410462,0.502146414832432
858.9039997877626,0.4970348998348218
861.5743348643446,0.49100058621186793
864.2438750258916,0.4869216826513054
866.9126206273068,0.4752364851980298
869.5805720232747,0.47018391916712543
872.2477295682729,0.45925619713861415
874.9140936165568,0.45450586629629636
877.5796645221853,0.448096656012901
880.2444426389957,0.44030253593900465
882.9084283206321,0.43152804176064646
885.5716219205024,0.42924736761293664
888.2340237918252,0.42395439557807196
890.8956342876045,0.4161019137059042
893.5564537606224,0.41020288603231364
896.2164825634645,0.4077663313541508
898.8757210485091,0.39846233657607866
901.566194253428,0.3952044833101381
904.2238436478765,0.39394979273495223
906.88070378462,0.3882961024692027
909.5047788508018,0.37778957123881024
912.1600710251078,0.37671417027021203
914.8145749914547,0.37199147631953267
917.4682911007549,0.3632016284181725
920.1212197037094,0.36374824649882176
922.7733611508156,0.35681096517153355
925.4247157923564,0.3520286053047519
928.0752839784072,0.34732213916302934
930.725066058847,0.3387003203922208
933.3740623833291,0.3311576987929652
936.0222733013143,0.32165619888520447
938.669699162052,0.3153134044160993
941.3163403145809,0.30580505030162364
943.9621971077358,0.29835745409193154
946.607269890148,0.28673355230074654
949.2515590102339,0.2824249634528237
951.8950648162136,0.2763526365929822
954.5377876560888,0.27057754120285543
957.1797278776648,0.25947763026420856
959.8208858285398,0.2518317043219144
962.4612618561077,0.24286867726289402
965.1008563075484,0.23188486975868833
967.7396695298376,0.21352975037676536
970.3777018697583,0.19996321702005768
973.0149536738754,0.18951878764274863
975.65142528855,0.17738511596043083
978.2871170599428,0.1653522848650966
980.8902880408277,0.15347561328085002
983.5244305486303,0.144102833227425
986.1577942462391,0.12920498268323746
988.7903794789963,0.12330905236827641
991.4221865920408,0.1201882577700565
994.0532159303111,0.11285559002086172
996.6834678385349,0.10896226095951567
999.3129426612431,0.11075114373845908
1001.9416407427561,0.1038566509460826
1004.5695624271975,0.0980271881129205
1007.1967080584836,0.10087093613817125
1009.8230779803271,0.10414989579657444
1012.4170434801454,0.10051115250499076
1015.041872349022,0.09913332969175066
1017.665926534246,0.09896351448543805
1020.2892063787294,0.10148044757269714
1022.9117122251773,0.10678098053608423
1025.5334444160871,0.1055731714643039
1028.15440329376,0.11085818321750243
1030.7745892002931,0.11315321836542473
1033.3940024775802,0.1140451769831418
1035.9810981708106,0.1089992589130464
1038.598976513018,0.10868333731893445
1041.2160832463414,0.10691609675734644
1043.832418711885,0.10150418617236948
1046.447983250535,0.0990023739393567
1049.0627772029802,0.09760047830390041
1051.676800909714,0.09139458748978901
1054.290054711022,0.08946845449495815
1056.8710678120515,0.088056442466933
1059.48279208834,0.08669689661735804
1062.093747474777,0.08687408616715243
1064.7039343108554,0.08082373987205611
1067.313352935871,0.07526634210890118
1069.9220036889128,0.06771288054479117
1072.4984711957586,0.06118819214449928
1075.105596462614,0.05358534460656108
1077.7119548694973,0.04988749729640626
1080.317546754708,0.04721165202563165
1082.9223724563308,0.043987858989779256
1085.5264323122756,0.04508752994084344
1088.1297266602414,0.0433978960871319
1090.700904617097,0.037816147231457924
1093.3026781742628,0.04171801247649543
1095.90368723129,0.042343048891191726
1098.5039321250988,0.04509023462506799
1101.1034131923952,0.04609943931216977
1103.6708254619662,0.044005067199240175
1106.2687890782108,0.05169936696632316
1108.8659898728438,0.05114813454563578
1111.4624281817887,0.052483277585455984
1114.0581043407765,0.05201421217652712
1116.6217591897112,0.05457889343907406
1119.2159212276165,0.056663382907025814
1121.8093221175222,0.05334656805451477
1124.4019621943662,0.051861823364501895
1126.9938417929043,0.054020184682021334
1129.5537474636767,0.052465576959131524
1132.1441162613737,0.05388081328454636
1134.7337255797866,0.053761945300205505
1137.322575752878,0.05591214055907539
1139.9106671144218,0.052545688911243935
1142.466831825419,0.0459127519183056
1145.0534156966605,0.048625936864797395
1147.6392417524658,0.04871326019055048
1150.2243103258224,0.052431947679835486
1152.7774899721844,0.052409158061778184
1155.3610536951164,0.05816867333454573
1157.9438609293902,0.06155837103099782
1160.5259120072114,0.06560708480277765
1163.1072072606003,0.0693724805387268
1165.6566606759006,0.07129519562531646
1168.2364543720396,0.07428259093671553
1170.8154932346333,0.07807149509447736
1173.3937775949307,0.08470368856704617
1175.940257690534,0.08732188607398611
1178.5170431196166,0.09273608769770886
1181.0930750349762,0.09834247333240854
1183.6683537670833,0.10190875369279123
1186.2118657414467,0.09776215052880922
1188.7856481622657,0.09716891031455878
1191.3586783861065,0.0924237464268049
1193.9309567426717,0.09058541972994359
1196.471505782134,0.09123775261333619
1199.0422904412299,0.08919617922272127
1201.6123242170252,0.09019545396583992
1204.1506566845674,0.09149846913303379
1206.7191987172919,0.08646941832288657
1209.2869908489847,0.08863896205616524
1211.8540334080099,0.08925449630449184
1214.389411983815,0.08839445613071359
1216.9549654029506,0.0908366879809092
1219.5197702293917,0.09286437719679898
1222.0529389950316,0.09774623335330744
1224.61625662804,0.09874348087711698
1227.1788266466283,0.10177990276682951
1229.7406493778217,0.10099808487378217
1232.2708732581305,0.1044577158391746
1234.8312113884967,0.10620625644268657
1237.3908032074723,0.11309313157968569
1239.9188240118929,0.11721231276280651
1242.4769331685857,0.12342716558113921
1245.0342969881858,0.12889036898730494
1247.560117592806,0.13208235887515904
1250.116000685306,0.1380040095812033
1252.6711394133126,0.13892295639535568
1255.194762689218,0.14278257693043372
1257.7484226219312,0.14217789225349062
1260.3013391610693,0.1393873467654898
1262.822767974354,0.13902038039503675
1265.3742076466478,0.1393597047046293
1267.924904894593,0.13944149243526652
1270.4441421063602,0.14773471234073723
1272.993364412563,0.15441121331819194
1275.5418452619597,0.16173662628482977
1278.0588937283464,0.16705470458126667
1280.6059015577484,0.17041168696085934
1283.1521688962057,0.17337728690728985
1285.6670314683906,0.17836713659436665
1288.2118277052796,0.1886413972624176
1290.755884415401,0.19757254287955775
1293.2685639396113,0.21036775153515117
1295.811151463251,0.2190161277581978
1298.3530004226377,0.234083033638224
1300.8634997401532,0.25013109036747116
1303.403881424827,0.2580080477639681
1305.9129317732186,0.27058982734331133
1308.4518474532706,0.28009312340846276
1310.9900261682633,0.29775119152060264
1313.4969010306886,0.3215578373786618
1316.0336156473168,0.33805899517998056
1318.5695942569437,0.35322615770826193
1321.074296461582,0.3630551670946973
1323.6088128757874,0.3805294853378036
1326.112071126503,0.3930474336468529
1328.6451266095319,0.4087538796462673
1331.1774476773753,0.42362305590768856
1333.6785379692556,0.4424366720265128
1336.209400003383,0.45735503690933116
1338.7090494631484,0.4732192580925794
1341.2384537241596,0.49177895623943507
1343.76712515721,0.5150408276826386
1346.2646113435585,0.5378004757786065
1348.7918268954818,0.5556080247662166
1351.2878753625337,0.5705001713048735
1353.8136362903097,0.5869161410414717
1356.338665972784,0.6089020654700132
1358.832555838333,0.6295079126377103
1361.3561327831994,0.6501009415921593
1363.8485880333137,0.6760962784931883
1366.3707134939323,0.6937366867298673
1368.8921092873425,0.7186152564764506
1371.3824105944368,0.742635112043119
1373.9023567847216,0.7644539556281299
1376.3912265713043,0.7778371933764798
1378.9097244082113,0.793214781036426
1381.3971639082774,0.8184888288769904
1383.914214640121,0.8394095261527869
1386.4002250862322,0.8623366595012518
1388.9158299598967,0.8754164118463534
1391.4307079939972,0.8899368345016102
1393.9145728441363,0.9079881567591326
1396.4280068914595,0.9226738541931808
1398.9104457665926,0.93682910007954
1401.422437070447,0.9445331670737238
1403.9034511981918,0.9553232389023995
1406.4140010004412,0.9655185685215933
1408.893591607004,0.971800858333019
1411.4027011481012,0.9723518519250133
1413.8808694582804,0.9817602733534194
1416.388539977259,0.9891693082302694
1418.8954870924463,0.9948434901691217
1421.3715199489052,0.9940196530712762
1423.877029901585,0.9943853699311657
1426.3516435212223,0.9940519107214829
1428.8557175468777,0.9977916726413061
1431.3289131495767,1.0
1433.8315524822574,0.9971377519845323
1436.3033312865118,0.9959811001170906
1438.8045371588632,0.991339998978489
1441.2749003817698,0.9898309040943988
1443.7746740250223,0.9881683546951486
1446.2436228822844,0.9813027186068473
1448.7419655262602,0.9749955133025114
1451.2095012321843,0.9726535097902272
1453.7064141053015,0.971190409678074
1456.1725378728079,0.9613306287490567
1458.6680222020732,0.9477424939774444
1461.1327352426997,0.928897595079965
1463.6267922537227,0.9175716771764291
1466.090095777603,0.907471725583351
1468.582726694589,0.8921166374993381
1471.044621910496,0.8703823507255266
1473.5358279562424,0.8524363446953408
1475.996316071556,0.8307378041171516
1478.4860984674815,0.8122475328988779
1480.9451806882025,0.7950070956973313
1483.4335406543069,0.7673390611796974
1485.8912181850574,0.7452355937843355
1488.3781569399653,0.727991492153889
1490.8344309839958,0.7058591370060543
1493.2900079848114,0.6857368873720495
1495.7748215041174,0.6638149455532475
1498.2289968168734,0.6406238688977152
1500.7123921617567,0.6191339450337578
1503.1651669862695,0.599455533040004
1505.647145370498,0.5790888265049716
1508.0985209052233,0.5633462730341909
1510.579083541168,0.5459240582385405
1513.02906098319,0.5269989993273285
1515.5082090818432,0.51552971598669
1517.9567896268818,0.49222152488325305
1520.4046764008053,0.47353973305131797
1522.8817092402714,0.45931092677653174
1525.3282009046197,0.44494151931602716
1527.803822224585,0.4251186423300883
1530.2489199716838,0.40443054700533404
1532.7231309783128,0.39396850943987627
1535.16683599912,0.3784766171823864
1537.6098493197496,0.36840824880472034
1540.0819513813403,0.353254533093576
1542.5235737559778,0.3460930607462354
1544.994268510025,0.3348409233479912
1547.4345011262485,0.32834864629247834
1549.8740435159852,0.31337152551010494
1552.3426338181598,0.30612679292152295
1554.7807882247253,0.2921804871139959
1557.2479742165997,0.2787914315650803
1559.6847418242032,0.27314041028739355
1562.1505247037494,0.2702948402747736
