Raman Shift (cm-1),Fitted Intensity
159.26151312198635,0.01213398551182917
162.17892251266312,0.012268131382431664
165.06070388440276,0.012403245773065915
167.97629817665074,0.01254266034077269
170.89098012548493,0.012684842562637676
173.77006778237046,0.012828131615495782
176.68293717714914,0.012976065577613152
179.59489550712533,0.013127024885262772
182.50594319967058,0.013281102915056183
185.38144153980102,0.013436505078600974
188.29068006676243,0.01359707633544081
191.19900923170644,0.013761069318101785
194.07182265961455,0.013926578615147248
196.97834519226308,0.014097706163300656
199.8839596359394,0.014272599021226299
202.75409191031576,0.014449230648109233
205.65790225025557,0.014631986726636802
208.5608057718964,0.014818899249830254
211.42826064439942,0.0150078089573436
214.32936258615155,0.015203415918850608
217.22955897789507,0.015403626449413291
220.09434019320543,0.015606135497824827
222.9927375242005,0.01581599275734781
225.89023057112718,0.016030966975608723
228.75234186693342,0.01624859252631473
231.64803836756255,0.01647430945003277
234.54283184768065,0.016705735582720274
237.4022769547155,0.01694022795561946
240.2952763983085,0.01718366427794556
243.18737408261222,0.01743349648014794
246.04415672466348,0.017686885192216818
248.93446287752522,0.017950201117591623
251.82386852998388,0.018220713443484464
254.67799242389083,0.01849536471901755
257.565609045334,0.018781083805272714
260.41796602711474,0.019071390864548118
263.3037952786035,0.019373628166588067
266.18872612093764,0.019684717851105083
269.0384305290536,0.020001183238210048
271.9215764941182,0.020331062423334795
274.8038253026716,0.020671040705671564
277.65088083558294,0.02101735139560442
280.5313472549242,0.021378835733425604
283.37664243438485,0.02174740851405055
286.2553281173605,0.02213251814982512
289.13311872473423,0.022530408824545992
291.97577117291803,0.02293676396831055
294.85178352428557,0.023362083569796407
297.6926797004962,0.023796997353848943
300.5669154435891,0.02425282306288592
303.44025818556474,0.024725338640341855
306.2785177554506,0.025209622389512305
309.150086361853,0.025718466815564417
311.98659372863403,0.0262409900174831
314.85638984211255,0.02679119074058598
317.69114662786524,0.02735753533365568
320.55917188903913,0.02795548120342098
323.42630704161274,0.028580438097967904
326.25843576130865,0.02922684067701504
329.1238025236089,0.02991301931923076
331.9541847135806,0.03062577888529832
334.8177847211591,0.03138600549976899
337.6464219965019,0.03217985034810768
340.5082568828984,0.03303147476525481
343.3351508567066,0.033926369245982635
346.1952222534492,0.03489291282240091
349.0203745368344,0.03591587645452538
351.8786840734356,0.03702906188881957
354.7361080202609,0.038231229655875144
357.55864557949826,0.03951845798232557
360.4143101115624,0.04093560926134443
363.23511000427607,0.04246441840441442
366.08901674608205,0.04415947847071743
368.90808057645336,0.046000028679723935
371.7602311504961,0.048052598055489365
374.57756052071636,0.050292444563840216
377.42795654749716,0.052800428844999234
380.2435530577968,0.05554561728546682
383.0921961558306,0.05862568470677764
385.90606140446107,0.06200043473049625
388.7529531902692,0.06578680043372352
391.56508877352826,0.06993132032008816
394.41023086164205,0.07457246247984486
397.2206383738594,0.07963860154745883
400.0640323768239,0.08529173944738637
402.8727134103756,0.09143645914377041
405.71436093876036,0.0982599394677462
408.5213170840616,0.10563691294015408
411.36121974646085,0.1137809679933802
414.16645259197685,0.12253087357530949
417.00461199500205,0.13212735918090113
419.8081231272481,0.14236739418799882
422.6107791472823,0.15338132586665226
425.446331879084,0.16533129513641623
428.2472685572284,0.17794146240042613
431.0810820327788,0.19151656333085654
433.88030095069917,0.2057247643365217
436.71237676973396,0.22088780114605608
439.5098795071426,0.23660975411705246
442.3402192674366,0.25321538413913613
445.1360074021177,0.2702331916572679
447.930943955329,0.28775366452970075
450.75868780728706,0.30585772127393945
453.5519121161087,0.3239389061226063
456.3779238904244,0.3422142490939181
459.1694375278166,0.35999631641867447
461.99371881542174,0.3774291152467413
464.7835233524238,0.39380754197762835
467.5724790401364,0.40907112340969876
470.39417274803054,0.4231517324667795
473.18142168360646,0.43556015831753325
476.00138886887726,0.44653776781873694
478.7869326185464,0.45587202094857293
481.60517486533354,0.46393668581458725
484.3890149934232,0.47076182661851174
487.17200899273666,0.476715620845147
489.9876719528438,0.4821369821125659
492.76896466880135,0.487161014269079
495.5829066375736,0.49214021465659175
498.3624996297294,0.49713420059791225
501.14124842855017,0.5023230288705163
503.9526170105346,0.5078366041551295
506.7296684166504,0.5135478842003848
509.505876786945,0.519467370264503
512.3146755106209,0.5255577503583289
515.0891888150436,0.5315076095011354
517.8962728359329,0.5372380707374972
520.6690926264382,0.5423476702636
523.4410713071484,0.5466088387549984
526.2455913408958,0.5497324653431935
529.0158788274384,0.5513239303094455
531.785326356061,0.5511371890766662
534.5872859139781,0.5488942071707064
537.3550445639485,0.5444851577398081
540.1219644057746,0.5378282268444964
542.9213669927594,0.5288358805183475
545.686600267225,0.5178518030830093
548.4509958812232,0.5049910067759271
551.2478449957853,0.49033732423703813
554.0105563494981,0.47454259779188135
556.805701690384,0.45754368245396426
559.5667303225964,0.4400475992958041
562.3269232040038,0.42213290495410355
565.0862807140293,0.40404372452789933
567.8780333537688,0.3857732229666475
570.6357112050464,0.3679338285381033
573.3925548263542,0.3504517846613741
576.1817644509756,0.33324259099225007
578.9369307080196,0.3168108123285001
581.6912638744288,0.30102308875244077
584.4779339570123,0.28576099138497657
587.2305920494691,0.27143419369068833
589.9824181885451,0.25789174921725133
592.7665521958479,0.24501143109410395
595.5167055471175,0.23311858561610999
598.2660280801974,0.22206679329266257
601.0145201715131,0.21186209015755755
603.7952814999189,0.20239776956316138
606.5421038421155,0.19389535479181047
609.2880968749887,0.1862291479862363
612.0663301881068,0.1793101275727861
614.8106557483188,0.17328812954799025
617.554153129593,0.16805837022881798
620.2968227067649,0.16360113997309977
623.0716940541533,0.15985478892730143
625.8126991844802,0.15688547340095566
628.552877638358,0.15462041000178414
631.2922297897167,0.1530354145102888
634.0637452701958,0.15209890088411818
636.8014359932095,0.15180886584386166
639.5383015386324,0.15212672397658678
642.3073015987065,0.15304405938041502
645.0425079771339,0.15451700282860775
647.7768903008473,0.15653229768797636
650.5104489421938,0.15907044695040692
653.2431842732913,0.16211320763846143
656.0080062575216,0.16568904440627932
658.7390861754284,0.16969692908813117
661.4693439025905,0.17416198357063903
664.1987798102273,0.17907075679835127
666.9602641357596,0.18447769799690975
669.6880476268889,0.19024234043521387
672.4150104152941,0.1964155752217826
675.141152871307,0.20298704470692341
677.8993055782594,0.21003294931844815
680.6237986072192,0.21737565644363102
683.3474724178923,0.22508697249230214
686.0703273797008,0.2331569719040322
688.7923638618704,0.24157536014607786
691.5463630106569,0.2504387688822904
694.2667537902307,0.2595243695457168
696.9863272009134,0.2689229445284121
699.705083611032,0.27862046787967837
702.4230233886883,0.2886013266398121
705.1728783546314,0.29897300315616804
707.8891761429404,0.3094685786765886
710.6046584062024,0.32018754625428575
713.3193255116239,0.3311044582872419
716.033177826208,0.34219041132521894
718.7462157167283,0.35341261610989594
721.491111983778,0.36487082512417784
724.2025123243511,0.3762500217006232
726.9130993442814,0.38763934466380595
729.6228734094693,0.3989869682650167
732.3318348855792,0.41023606208479
735.0399841380749,0.4213251240129898
737.7799351068679,0.43231787010261
740.4864512328204,0.4428833646649425
743.1921562345997,0.4530839026625233
745.8970504767931,0.46284969756587246
748.6011343237551,0.4721133980697651
751.3044081396256,0.48081247118989623
754.0394271625555,0.48898502552026923
756.741072259374,0.4963904581378435
759.4419084205874,0.5030960826065038
762.1419360094733,0.50908127210795
764.8411553890837,0.5143394295780147
767.539566922238,0.5188780642988837
770.2371709715626,0.522718094667683
772.9339678994475,0.5258924476678756
775.6624349602753,0.5284712426342436
778.3576090181923,0.5304443037753411
781.0519770449282,0.5319019061013306
783.7455394020071,0.5329026539077163
786.4382964507422,0.5335055428501401
789.1302485522319,0.5337679770531423
791.8213960673565,0.5337441628836577
794.5117393567816,0.5334839011405688
797.2012787809545,0.5330317621719646
799.922404211542,0.5324185192019141
802.6103273114531,0.5316920135500111
805.2974476305062,0.5308727823300333
807.9837655282827,0.5299821253297341
810.6692813641639,0.5290359600535187
813.3539954973021,0.5280452005192509
816.037908286642,0.5270161751812537
818.7210200909067,0.5259510612225636
821.4033312686151,0.5248483205733971
824.0848421780756,0.5237031294877698
826.7655531773598,0.5225077982872094
829.4777478409233,0.5212366375537608
832.1568504666102,0.5199075785784671
834.8351542594137,0.5184919965887717
837.5126595765614,0.51697474925855
840.1893667750774,0.5153398182972302
842.8652762117599,0.5135706945569024
845.5403882432074,0.5116507585204951
848.2147032257963,0.5095636530117266
850.8882215157028,0.507293643550451
853.5609434688704,0.5048259606216712
856.2328694410462,0.5021471173413193
858.9039997877626,0.49924519566522013
861.5743348643446,0.4961100944405885
864.2438750258916,0.4927337332461062
866.9126206273068,0.48911020707078817
869.5805720232747,0.4852358883717437
872.2477295682729,0.4811094748225616
874.9140936165568,0.4767319829931092
877.5796645221853,0.47210669015147677
880.2444426389957,0.4672390282162621
882.9084283206321,0.462136435490881
885.5716219205024,0.4568081730856985
888.2340237918252,0.4512651138112194
890.8956342876045,0.4455195117775475
893.5564537606224,0.43958476096314225
896.2164825634645,0.433475150655767
898.8757210485091,0.4272056249789095
901.566194253428,0.42071345715343395
904.2238436478765,0.4141689587662581
906.88070378462,0.4075112739532506
909.5047788508018,0.4008377483722118
912.1600710251078,0.39400058835963037
914.8145749914547,0.3870953165126935
917.4682911007549,0.3801360972387263
920.1212197037094,0.3731364845062883
922.7733611508156,0.3661093652861386
925.4247157923564,0.35906692221526465
928.0752839784072,0.35202061318727185
930.725066058847,0.3449811654598811
933.3740623833291,0.3379585818694987
936.0222733013143,0.3309621568301655
938.669699162052,0.32400049994857977
941.3163403145809,0.3170815652855291
943.9621971077358,0.3102126845206103
946.607269890148,0.30340060251545636
949.2515590102339,0.2966515140089006
951.8950648162136,0.2899711004063479
954.5377876560888,0.28336456583903735
957.1797278776648,0.2768366718615602
959.8208858285398,0.27039177032706413
962.4612618561077,0.2640338341266834
965.1008563075484,0.25776648560441484
967.7396695298376,0.25159302256119886
970.3777018697583,0.24551644184470534
973.0149536738754,0.23953946058586914
975.65142528855,0.23366453519157357
978.2871170599428,0.22789387823808724
980.8902880408277,0.22229707973187526
983.5244305486303,0.2167393839709882
986.1577942462391,0.21129125478244523
988.7903794789963,0.2059540647562063
991.4221865920408,0.20072900172896124
994.0532159303111,0.19561707685851748
996.6834678385349,0.19061913184035434
999.3129426612431,0.18573584541658464
1001.9416407427561,0.18096773931408297
1004.5695624271975,0.17631518373421368
1007.1967080584836,0.1717784025026962
1009.8230779803271,0.1673574779741852
1012.4170434801454,0.16310353612201678
1015.041872349022,0.15891263844305636
1017.665926534246,0.15483704721860278
1020.2892063787294,0.15087632710758836
1022.9117122251773,0.14702992451881733
1025.5334444160871,0.14329717234911465
1028.15440329376,0.1396772948167748
1030.7745892002931,0.13616941240431338
1033.3940024775802,0.1327725469185263
1035.9810981708106,0.12952457826817876
1038.598976513018,0.1263451399420189
1041.2160832463414,0.12327325974485984
1043.832418711885,0.12030761864390213
1046.447983250535,0.11744682589090488
1049.0627772029802,0.114689424721339
1051.676800909714,0.11203389812496366
1054.290054711022,0.10947867467392221
1056.8710678120515,0.10705115046827887
1059.48279208834,0.10469047186273639
1062.093747474777,0.10242513512571136
1064.7039343108554,0.10025341042639935
1067.313352935871,0.09817354295207262
1069.9220036889128,0.09618375878918496
1072.4984711957586,0.09430466184198713
1075.105596462614,0.09248864385441412
1077.7119548694973,0.09075735270362767
1080.317546754708,0.08910899598145419
1082.9223724563308,0.08754179083250208
1085.5264323122756,0.0860539695151867
1088.1297266602414,0.0846437848927696
1090.700904617097,0.08332514626977608
1093.3026781742628,0.08206421870773357
1095.90368723129,0.08087588359305432
1098.5039321250988,0.0797585291900758
1101.1034131923952,0.07871059073889668
1103.6708254619662,0.07774196488925837
1106.2687890782108,0.07682758530891218
1108.8659898728438,0.07597827651979058
1111.4624281817887,0.0751927115027014
1114.0581043407765,0.07446963533511711
1116.6217591897112,0.07381548275504804
1119.2159212276165,0.0732132134924189
1121.8093221175222,0.072670162309558
1124.4019621943662,0.0721854114041448
1126.9938417929043,0.07175814005673135
1129.5537474636767,0.0713917584318679
1132.1441162613737,0.07107672470454722
1134.7337255797866,0.07081734765636563
1137.322575752878,0.07061324525614099
1139.9106671144218,0.07046415876792403
1142.466831825419,0.07037076666719436
1145.0534156966605,0.0703307946953762
1147.6392417524658,0.07034585514138844
1150.2243103258224,0.07041623669144359
1152.7774899721844,0.07054052590615403
1155.3610536951164,0.07072234541765161
1157.9438609293902,0.07096127636270033
1160.5259120072114,0.07125824854744407
1163.1072072606003,0.07161436785661261
1165.6566606759006,0.07202553845586807
1168.2364543720396,0.07250324975684791
1170.8154932346333,0.07304452352623036
1173.3937775949307,0.07365123003713171
1175.940257690534,0.07431691302329538
1178.5170431196166,0.07506007505563199
1181.0930750349762,0.07587551608441942
1183.6683537670833,0.07676596793028814
1186.2118657414467,0.07772224842800331
1188.7856481622657,0.07877084544884244
1191.3586783861065,0.07990400744803605
1193.9309567426717,0.08112541361405333
1196.471505782134,0.08242260053457891
1199.0422904412299,0.08383134294968056
1201.6123242170252,0.08534081554957382
1204.1506566845674,0.08693560258228666
1206.7191987172919,0.08865949543486208
1209.2869908489847,0.09049889031213916
1211.8540334080099,0.09245924532032951
1214.389411983815,0.09452035270893484
1216.9549654029506,0.0967383901884676
1219.5197702293917,0.0990952119086708
1222.0529389950316,0.10156624203610459
1224.61625662804,0.10421838011001347
1227.1788266466283,0.10702930699323625
1229.7406493778217,0.11000617254425515
1232.2708732581305,0.11311732363350262
1234.8312113884967,0.11644612665207868
1237.3908032074723,0.11996344493490359
1239.9188240118929,0.12363125056037697
1242.4769331685857,0.1275469917302345
1245.0342969881858,0.13167534373524795
1247.560117592806,0.13597087927669496
1250.116000685306,0.14054669881868526
1252.6711394133126,0.1453602514669797
1255.194762689218,0.1503576089051407
1257.7484226219312,0.155669124877997
1260.3013391610693,0.16124390115911577
1262.822767974354,0.16701835448613628
1265.3742076466478,0.17314168129822477
1267.924904894593,0.1795534570748783
1270.4441421063602,0.1861792693969619
1272.993364412563,0.19318868721801702
1275.5418452619597,0.20051055548880342
1278.0588937283464,0.2080584766056798
1280.6059015577484,0.21602380935475268
1283.1521688962057,0.2243234775210365
1285.6670314683906,0.23285800379939398
1288.2118277052796,0.24184178465049766
1290.755884415401,0.2511786888660608
1293.2685639396113,0.2607551721279009
1295.811151463251,0.2708096863194804
1298.3530004226377,0.28123201271795817
1300.8634997401532,0.2918937045680505
1303.403881424827,0.3030579920051957
1305.9129317732186,0.31445836846384945
1308.4518474532706,0.3263747730236003
1310.9900261682633,0.3386716383962398
1313.4969010306886,0.3511943793351696
1316.0336156473168,0.36424806410629446
1318.5695942569437,0.3776810696225925
1321.074296461582,0.39132269145574716
1323.6088128757874,0.40550268100204223
1326.112071126503,0.4198754864216566
1328.6451266095319,0.434786727363943
1331.1774476773753,0.45005728624105695
1333.6785379692556,0.46548966844022127
1336.209400003383,0.48145194421640575
1338.7090494631484,0.4975500319649426
1341.2384537241596,0.5141656050000157
1343.76712515721,0.531091789663668
1346.2646113435585,0.5481052365312632
1348.7918268954818,0.5656052096525976
1351.2878753625337,0.5831527700081285
1353.8136362903097,0.6011563806315329
1356.338665972784,0.6193816844795142
1358.832555838333,0.6375813463931359
1361.3561327831994,0.6561726399149771
1363.8485880333137,0.6746786521171957
1366.3707134939323,0.6935183346919648
1368.8921092873425,0.7124307645121347
1371.3824105944368,0.7311480675278726
1373.9023567847216,0.7500838386840063
1376.3912265713043,0.7687356578511901
1378.9097244082113,0.7875073940369012
1381.3971639082774,0.8058922221753514
1383.914214640121,0.8242787319813528
1386.4002250862322,0.8421606070534589
1388.9158299598967,0.859905264096204
1391.4307079939972,0.8772190281741131
1393.9145728441363,0.8938249960232069
1396.4280068914595,0.9100476488129992
1398.9104457665926,0.9254139274059794
1401.422437070447,0.940212949453371
1403.9034511981918,0.9540025982721376
1406.4140010004412,0.9670321777716439
1408.893591607004,0.9789032177829935
1411.4027011481012,0.9898219280523108
1413.8808694582804,0.9994472031794959
1416.388539977259,1.0079401389022278
1418.8954870924463,1.015108891141462
1421.3715199489052,1.0208337832344145
1423.877029901585,1.025206647061662
1426.3516435212223,1.0280860780810521
1428.8557175468777,1.029517786293217
1431.3289131495767,1.0294556718665362
1433.8315524822574,1.027899464966129
1436.3033312865118,1.0249006799195783
1438.8045371588632,1.0204130420396464
1441.2749003817698,1.014582860491962
1443.7746740250223,1.0073176805335489
1446.2436228822844,0.9988510960921488
1448.7419655262602,0.9890444350800635
1451.2095012321843,0.9782074807861066
1453.7064141053015,0.9661558820800292
1456.1725378728079,0.9532624077411332
1458.6680222020732,0.9392985541153908
1461.1327352426997,0.9246862618867518
1463.6267922537227,0.9091556295733122
1466.090095777603,0.8931645834313522
1468.582726694589,0.8764058079191915
1471.044621910496,0.8593614812959864
1473.5358279562424,0.8416918707160863
1475.996316071556,0.8238935265247678
1478.4860984674815,0.8055999555499839
1480.9451806882025,0.7873141108138896
1483.4335406543069,0.7686486624524687
1485.8912181850574,0.7501067390106421
1488.3781569399653,0.731286008117337
1490.8344309839958,0.7126850092286794
1493.2900079848114,0.6941179402589366
1495.7748215041174,0.675396960816139
1498.2289968168734,0.6570072789720215
1500.7123921617567,0.6385317933290179
1503.1651669862695,0.6204436804021334
1505.647145370498,0.6023274523627721
1508.0985209052233,0.584642425308219
1510.579083541168,0.5669780811620044
1513.02906098319,0.5497784537430191
1515.5082090818432,0.5326407631809251
1517.9567896268818,0.5159926441451473
1520.4046764008053,0.49963886958569503
1522.8817092402714,0.4833970837508162
1525.3282009046197,0.4676687921036442
1527.803822224585,0.4520793574280049
1530.2489199716838,0.4370120513766775
1532.7231309783128,0.4221059728355591
1535.16683599912,0.40772572893748216
1537.6098493197496,0.3936940297663196
1540.0819513813403,0.3798496839158056
1542.5235737559778,0.36652888321547633
1544.994268510025,0.35340850698299253
1547.4345011262485,0.3408056566130469
1549.8740435159852,0.32856026635077223
1552.3426338181598,0.3165290316836016
1554.7807882247253,0.3050006516819066
1557.2479742165997,0.2936920593308378
1559.6847418242032,0.28287328275951007
