Raman Shift (cm-1),Fitted Intensity
159.26151312198635,0.03554623789921131
162.17892251266312,0.03601939470770803
165.06070388440276,0.03649808926578303
167.97629817665074,0.03699425943466887
170.89098012548493,0.03750263277772608
173.77006778237046,0.03801737761401855
176.68293717714914,0.0385513618074656
179.59489550712533,0.039098951977502266
182.50594319967058,0.03966066504634377
185.38144153980102,0.04023009412105314
188.29068006676243,0.04082152574708793
191.19900923170644,0.04142878829105074
194.07182265961455,0.0420449892977909
196.97834519226308,0.042685636149553535
199.8839596359394,0.043344105452215384
202.75409191031576,0.044012964889328036
205.65790225025557,0.044709104184509366
208.5608057718964,0.045425400413134705
211.42826064439942,0.04615381887392924
214.32936258615155,0.04691282222660616
217.22955897789507,0.04769473343788654
220.09434019320543,0.048490842922604534
222.9927375242005,0.04932141217437075
225.89023057112718,0.050178147139941044
228.75234186693342,0.05105157854673636
231.64803836756255,0.05196403535025876
234.54283184768065,0.052906533076458435
237.4022769547155,0.0538687424971342
240.2952763983085,0.05487538005244508
243.18737408261222,0.05591668383851288
246.04415672466348,0.05698134459984818
248.93446287752522,0.058096847434117624
251.82386852998388,0.05925254785193433
254.67799242389083,0.0604360107397837
257.565609045334,0.061677942607544126
260.41796602711474,0.0629510594745571
263.3037952786035,0.06428850193046039
266.18872612093764,0.06567785134962363
269.0384305290536,0.06710437763706681
271.9215764941182,0.06860538310267719
274.8038253026716,0.07016713948493176
277.65088083558294,0.07177320700454388
280.5313472549242,0.07346573936765453
283.37664243438485,0.07520801970762028
286.2553281173605,0.0770458601201564
289.13311872473423,0.07896276356185747
291.97577117291803,0.0809386728431931
294.85178352428557,0.08302561715504043
297.6926797004962,0.08517844731065931
300.5669154435891,0.08745384552773157
303.44025818556474,0.08983147947974005
306.2785177554506,0.09228634392454192
309.150086361853,0.09488294731503133
311.98659372863403,0.09756489711306111
314.85638984211255,0.10040248772890353
317.69114662786524,0.10333386918223772
320.55917188903913,0.10643559696449219
323.42630704161274,0.10967921317107251
326.25843576130865,0.11302959458045032
329.1238025236089,0.1165736072964641
331.9541847135806,0.12023292551101894
334.8177847211591,0.12410186798951524
337.6464219965019,0.1280943215427478
340.5082568828984,0.13231251777249559
343.3351508567066,0.13666185174392473
346.1952222534492,0.14125291021553874
349.0203745368344,0.1459819058599908
351.8786840734356,0.1509682001361192
354.7361080202609,0.15616122364217905
357.55864557949826,0.1615003333895259
360.4143101115624,0.16711880778489285
363.23511000427607,0.1728871185029084
366.08901674608205,0.1789482412594873
368.90808057645336,0.1851614355337135
371.7602311504961,0.19167968044429307
374.57756052071636,0.19835061965557493
377.42795654749716,0.20533749689895592
380.2435530577968,0.21247602786568842
383.0921961558306,0.21993992744718188
385.90606140446107,0.2275527585596369
388.7529531902692,0.23549884530829646
391.56508877352826,0.24358944943308625
394.41023086164205,0.2520195551618688
397.2206383738594,0.2605880352885986
400.0640323768239,0.26950047419513656
402.8727134103756,0.2785433115651779
405.71436093876036,0.28793253270460867
408.5213170840616,0.2974421302244657
411.36121974646085,0.30729812005702595
414.16645259197685,0.3172620599205919
417.00461199500205,0.3275694218103752
419.8081231272481,0.337969377969343
422.6107791472823,0.34857700592363844
425.446331879084,0.3595163297620603
428.2472685572284,0.3705182361100486
431.0810820327788,0.38183768943003193
433.88030095069917,0.39319373781259487
436.71237676973396,0.4048467759170817
439.5098795071426,0.41650458929212314
442.3402192674366,0.4284312082410975
445.1360074021177,0.44032408370012865
447.930943955329,0.45230402837625316
450.75868780728706,0.4644938836583454
453.5519121161087,0.4765784063778661
456.3779238904244,0.48882109454269806
459.1694375278166,0.5009009487253858
461.99371881542174,0.5130768146062844
464.7835233524238,0.5250249188236431
467.5724790401364,0.5368550204333712
470.39417274803054,0.5486692670287088
473.18142168360646,0.5601468945095667
476.00138886887726,0.5715228874914089
478.7869326185464,0.5824842874039989
481.60517486533354,0.5932515731774112
484.3890149934232,0.6035249156929209
487.17200899273666,0.6133913621638277
489.9876719528438,0.6229185848730022
492.76896466880135,0.6318371696094222
495.5829066375736,0.6403199495892677
498.3624996297294,0.6481251726380909
501.14124842855017,0.6553197956439487
503.9526170105346,0.6619438204514073
506.7296684166504,0.6678073105027738
509.505876786945,0.6729645229085656
512.3146755106209,0.6774393815616547
515.0891888150436,0.6811043472984386
517.8962728359329,0.6840308899808212
520.6690926264382,0.68613743516453
523.4410713071484,0.6874565484690038
526.2455913408958,0.6879878416408594
529.0158788274384,0.6877218274271202
531.785326356061,0.6866778528837794
534.5872859139781,0.6848428931684097
537.3550445639485,0.6822792236688237
540.1219644057746,0.6789928862004397
542.9213669927594,0.6749598227494471
545.686600267225,0.6703088897472348
548.4509958812232,0.665032910226482
551.2478449957853,0.6590984652885902
554.0105563494981,0.6526913944772301
556.805701690384,0.6457057843150948
559.5667303225964,0.6383584049296649
562.3269232040038,0.6306211799056042
565.0862807140293,0.6225481400874951
567.8780333537688,0.6140925503472738
570.6357112050464,0.6055125954450398
573.3925548263542,0.5967659305523092
576.1817644509756,0.5878021511912435
578.9369307080196,0.5788915513915164
581.6912638744288,0.5699834134794008
584.4779339570123,0.5610258567356877
587.2305920494691,0.552285258470753
589.9824181885451,0.5437051274565112
592.7665521958479,0.5352343838897049
595.5167055471175,0.5271209065701484
598.2660280801974,0.5193053925188107
601.0145201715131,0.5118276872868366
603.7952814999189,0.5046412357897437
606.5421038421155,0.49795065905482533
609.2880968749887,0.4916977013401764
612.0663301881068,0.4858415190615919
614.8106557483188,0.4805440199944313
617.554153129593,0.47575111219971034
620.2968227067649,0.4714774777876456
623.0716940541533,0.4676921771817222
625.8126991844802,0.46449251913806133
628.552877638358,0.4618335946389684
631.2922297897167,0.4597151074182208
634.0637452701958,0.4581173597640742
636.8014359932095,0.4570709203222375
639.5383015386324,0.456542740130097
642.3073015987065,0.45652145960439516
645.0425079771339,0.45699017839144174
647.7768903008473,0.45792539221853273
650.5104489421938,0.4593040155075797
653.2431842732913,0.46110028821659127
656.0080062575216,0.46331453640109016
658.7390861754284,0.4658631491624146
661.4693439025905,0.46873749432684253
664.1987798102273,0.471902963881272
666.9602641357596,0.47536587973913585
669.6880476268889,0.4790056711455264
672.4150104152941,0.48282315910838164
675.141152871307,0.4867784608210416
677.8993055782594,0.4908802795325515
680.6237986072192,0.4949896097717645
683.3474724178923,0.4991137671136994
686.0703273797008,0.5032119670492575
688.7923638618704,0.507243975846978
691.5463630106569,0.5112169498816617
694.2667537902307,0.5149977985144788
696.9863272009134,0.5185980178628203
699.705083611032,0.5219830443030592
702.4230233886883,0.5251206435084389
705.1728783546314,0.5280139641539096
707.8891761429404,0.5305674739188833
710.6046584062024,0.5327945266122047
713.3193255116239,0.5346762901595099
716.033177826208,0.5361983911092387
718.7462157167283,0.5373514342660067
721.491111983778,0.5381387153029356
724.2025123243511,0.5385439555441877
726.9130993442814,0.5385882936937703
729.6228734094693,0.5382892400456725
732.3318348855792,0.5376734488886461
735.0399841380749,0.5367780966810712
737.7799351068679,0.5356377593196596
740.4864512328204,0.5343434806947902
743.1921562345997,0.5329618771629885
745.8970504767931,0.5315886780645178
748.6011343237551,0.5303365442429551
751.3044081396256,0.5293331383080694
754.0394271625555,0.528711469711286
756.741072259374,0.5286255083004177
759.4419084205874,0.5291883734199216
762.1419360094733,0.5304887132093721
764.8411553890837,0.5325574195867953
767.539566922238,0.5353444992937888
770.2371709715626,0.5387014217906977
772.9339678994475,0.5423752333051829
775.6624349602753,0.5460622061171249
778.3576090181923,0.5492635562367055
781.0519770449282,0.5516077176673101
783.7455394020071,0.5527322845724209
786.4382964507422,0.5523927972156537
789.1302485522319,0.5505137650671466
791.8213960673565,0.5472145322787048
794.5117393567816,0.5428025304532509
797.2012787809545,0.5377335212364146
799.922404211542,0.5324847700081007
802.6103273114531,0.5277275137842917
805.2974476305062,0.5238630185604641
807.9837655282827,0.5212152263056082
810.6692813641639,0.5199284824220393
813.3539954973021,0.5199569867011161
816.037908286642,0.5210823063167767
818.7210200909067,0.5229539874037212
821.4033312686151,0.5251454959993984
824.0848421780756,0.527216362164953
826.7655531773598,0.5287713565523509
829.4777478409233,0.5295116750213815
832.1568504666102,0.529241450583881
834.8351542594137,0.5279349260921281
837.5126595765614,0.5256787847127976
840.1893667750774,0.5226608348189694
842.8652762117599,0.5191335577934858
845.5403882432074,0.5153735749268281
848.2147032257963,0.5116436528955752
850.8882215157028,0.508162472871734
853.5609434688704,0.5050852362991527
856.2328694410462,0.5024958377087131
858.9039997877626,0.5004093249267544
861.5743348643446,0.4987820357661888
864.2438750258916,0.4975262605093949
866.9126206273068,0.49652643477083547
869.5805720232747,0.4956544904570234
872.2477295682729,0.49478281955475634
874.9140936165568,0.4937941120719797
877.5796645221853,0.4925879722757218
880.2444426389957,0.49108463964785076
882.9084283206321,0.48922635346629767
885.5716219205024,0.48697695179691636
888.2340237918252,0.484320247478735
890.8956342876045,0.4812576288116736
893.5564537606224,0.4778052287893192
896.2164825634645,0.4739909149270553
898.8757210485091,0.4698512799571439
901.566194253428,0.4653739384216042
904.2238436478765,0.46071158484969477
906.88070378462,0.45585896164755085
909.5047788508018,0.4509221543122425
912.1600710251078,0.4458226015457559
914.8145749914547,0.44065779124237464
917.4682911007549,0.4354606349834095
920.1212197037094,0.43025830557365147
922.7733611508156,0.4250719894040265
925.4247157923564,0.4199169358630072
928.0752839784072,0.4148027619102407
930.725066058847,0.4097339657947771
933.3740623833291,0.40471060258718666
936.0222733013143,0.3997290756236303
938.669699162052,0.3947830019659604
941.3163403145809,0.38986411639465246
943.9621971077358,0.38496318722036166
946.607269890148,0.3800709285671688
949.2515590102339,0.37517890857014863
951.8950648162136,0.37028047306033574
954.5377876560888,0.3653717337928994
957.1797278776648,0.3604527172778713
959.8208858285398,0.35552885164205117
962.4612618561077,0.3506131206195497
965.1008563075484,0.34572951619980025
967.7396695298376,0.3409190657848001
970.3777018697583,0.3362511814499102
973.0149536738754,0.33184669624844304
975.65142528855,0.32792839323359124
978.2871170599428,0.3249387444353321
980.8902880408277,0.32380053586537205
983.5244305486303,0.32628028165492184
986.1577942462391,0.3349012871646016
988.7903794789963,0.34988349699609167
991.4221865920408,0.3639108761366055
994.0532159303111,0.36416297341842124
996.6834678385349,0.34603354913761664
999.3129426612431,0.3191739294630964
1001.9416407427561,0.295404848798592
1004.5695624271975,0.27860449724915215
1007.1967080584836,0.267073966641595
1009.8230779803271,0.25847698704631034
1012.4170434801454,0.2515053176163251
1015.041872349022,0.2453277586869801
1017.665926534246,0.23971847610004246
1020.2892063787294,0.2345172109445416
1022.9117122251773,0.2296376985437766
1025.5334444160871,0.22503082476824138
1028.15440329376,0.2206672964813208
1030.7745892002931,0.2165288852127304
1033.3940024775802,0.2126037280224295
1035.9810981708106,0.20892730533918233
1038.598976513018,0.2054040280143618
1041.2160832463414,0.2020752137029305
1043.832418711885,0.19893680539879582
1046.447983250535,0.19598507841558993
1049.0627772029802,0.19321642823457233
1051.676800909714,0.19062724597215971
1054.290054711022,0.1882138505830369
1056.8710678120515,0.18599845441699808
1059.48279208834,0.1839231696427337
1062.093747474777,0.18201204923859735
1064.7039343108554,0.1802610186579632
1067.313352935871,0.17866594598258606
1069.9220036889128,0.17722266936072673
1072.4984711957586,0.1759417733207828
1075.105596462614,0.1747879208483749
1077.7119548694973,0.1737735295328276
1080.317546754708,0.17289459292497766
1082.9223724563308,0.1721472050046295
1085.5264323122756,0.17152758025521272
1088.1297266602414,0.171032071158289
1090.700904617097,0.17066099526891723
1093.3026781742628,0.17040200505471445
1095.90368723129,0.17025718986541089
1098.5039321250988,0.17022357710873326
1101.1034131923952,0.17029838345708134
1103.6708254619662,0.17047622246670113
1106.2687890782108,0.17075906056227408
1108.8659898728438,0.17114316249281997
1111.4624281817887,0.17162652630660774
1114.0581043407765,0.17220734621777886
1116.6217591897112,0.1728752935545261
1119.2159212276165,0.17364525317568658
1121.8093221175222,0.17450842070586894
1124.4019621943662,0.17546374848955998
1126.9938417929043,0.17651037060887587
1129.5537474636767,0.17763336043088082
1132.1441162613737,0.1788595979772954
1134.7337255797866,0.1801755867555849
1137.322575752878,0.18158114677838774
1139.9106671144218,0.18307626042880432
1142.466831825419,0.1846414399217327
1145.0534156966605,0.1863151529183434
1147.6392417524658,0.1880792993160036
1150.2243103258224,0.1899344749175733
1152.7774899721844,0.19185741514196983
1155.3610536951164,0.19389589720028083
1157.9438609293902,0.1960280508133027
1160.5259120072114,0.19825504124209536
1163.1072072606003,0.20057817138767584
1165.6566606759006,0.20296912817354165
1168.2364543720396,0.20548778451059105
1170.8154932346333,0.2081072782639142
1173.3937775949307,0.21082944664018108
1175.940257690534,0.21362156899487228
1178.5170431196166,0.21655382239236537
1181.0930750349762,0.21959501677370918
1183.6683537670833,0.22274750612516558
1186.2118657414467,0.2259737316440215
1188.7856481622657,0.2293549619513737
1191.3586783861065,0.23285527342945275
1193.9309567426717,0.23647751943284906
1196.471505782134,0.24017877269770463
1199.0422904412299,0.24405236978903375
1201.6123242170252,0.2480571407441556
1204.1506566845674,0.2521457231733901
1206.7191987172919,0.25642123526861543
1209.2869908489847,0.26083816847535196
1211.8540334080099,0.26540015774158343
1214.389411983815,0.27005327443189603
1216.9549654029506,0.27491478429792493
1219.5197702293917,0.2799327354609328
1222.0529389950316,0.2850477243226682
1224.61625662804,0.29038847775250404
1227.1788266466283,0.2958976443655964
1229.7406493778217,0.3015793026490124
1232.2708732581305,0.30736589123602903
1234.8312113884967,0.3134025808140584
1237.3908032074723,0.31962391609777957
1239.9188240118929,0.32595551203880346
1242.4769331685857,0.3325556528034972
1245.0342969881858,0.339352042906652
1247.560117592806,0.3462628071544323
1250.116000685306,0.3534598945853406
1252.6711394133126,0.36086343227497625
1255.194762689218,0.36838335352068247
1257.7484226219312,0.3762056261870181
1260.3013391610693,0.38424200695956984
1262.822767974354,0.3923935323242849
1265.3742076466478,0.4008602544343651
1267.924904894593,0.4095447451791485
1270.4441421063602,0.4183384892632365
1272.993364412563,0.42745530171960555
1275.5418452619597,0.436787798192381
1278.0588937283464,0.4462173943887495
1280.6059015577484,0.4559708678183326
1283.1521688962057,0.46593025667785015
1285.6670314683906,0.4759666582621069
1288.2118277052796,0.48631846885471136
1290.755884415401,0.4968568392771983
1293.2685639396113,0.5074427434815069
1295.811151463251,0.5183243006363145
1298.3530004226377,0.5293619913446018
1300.8634997401532,0.5404075185120643
1303.403881424827,0.551716348843958
1305.9129317732186,0.5630010452713282
1308.4518474532706,0.5745204830079211
1310.9900261682633,0.5861200639649385
1313.4969010306886,0.5976403646570394
1316.0336156473168,0.6093430681731379
1318.5695942569437,0.6210678315060723
1321.074296461582,0.632652765431206
1323.6088128757874,0.644359672314227
1326.112071126503,0.6558859863226336
1328.6451266095319,0.6674922283030313
1331.1774476773753,0.6790171847032538
1333.6785379692556,0.6903042390849875
1336.209400003383,0.7016101723903303
1338.7090494631484,0.7126454866953187
1341.2384537241596,0.7236633611974209
1343.76712515721,0.7345137737401845
1346.2646113435585,0.7450563837999628
1348.7918268954818,0.7555372791799614
1351.2878753625337,0.7656947503106134
1353.8136362903097,0.7757689306785477
1356.338665972784,0.7856286430890526
1358.832555838333,0.7951544222874324
1361.3561327831994,0.8045752186089571
1363.8485880333137,0.8136616016451036
1366.3707134939323,0.8226333292988712
1368.8921092873425,0.8313766005143682
1371.3824105944368,0.8397884578937713
1373.9023567847216,0.848071791306079
1376.3912265713043,0.8560238615888547
1378.9097244082113,0.8638341423184145
1381.3971639082774,0.8713084225106804
1383.914214640121,0.878620961196936
1386.4002250862322,0.8855854988088417
1388.9158299598967,0.8923593258569118
1391.4307079939972,0.8988406977145694
1393.9145728441363,0.9049394601671445
1396.4280068914595,0.9107843849401025
1398.9104457665926,0.9162127285200728
1401.422437070447,0.9213325900933278
1403.9034511981918,0.9259950020063701
1406.4140010004412,0.9302863596821612
1408.893591607004,0.934075558865797
1411.4027011481012,0.9374265862254227
1413.8808694582804,0.9402310207535776
1416.388539977259,0.942530075399914
1418.8954870924463,0.9442605225879269
1421.3715199489052,0.9453886531337347
1423.877029901585,0.9459214625165097
1426.3516435212223,0.9458292983880219
1428.8557175468777,0.9450967842770174
1431.3289131495767,0.9437329927864107
1433.8315524822574,0.9417007174876432
1436.3033312865118,0.9390500073181955
1438.8045371588632,0.9357225038376282
1441.2749003817698,0.9318097393722228
1443.7746740250223,0.9272329958429876
1446.2436228822844,0.9221239301833238
1448.7419655262602,0.9163843881271031
1451.2095012321843,0.9101830089756264
1453.7064141053015,0.90340330755699
1456.1725378728079,0.8962462446227029
1458.6680222020732,0.8885783598490603
1461.1327352426997,0.880627151820094
1463.6267922537227,0.8722438547759761
1466.090095777603,0.8636760585501956
1468.582726694589,0.854761711645553
1471.044621910496,0.8457618414098473
1473.5358279562424,0.8365034739699
1475.996316071556,0.827254610746824
1478.4860984674815,0.8178340099073006
1480.9451806882025,0.8085106792587688
1483.4335406543069,0.7990979621655789
1485.8912181850574,0.7898606026198944
1488.3781569399653,0.7806094628255946
1490.8344309839958,0.7716005544280015
1493.2900079848114,0.7627519483917496
1495.7748215041174,0.7539868707004003
1498.2289968168734,0.7455417011486514
1500.7123921617567,0.7372333092577238
1503.1651669862695,0.7292817093401461
1505.647145370498,0.7215104182438881
1508.0985209052233,0.7141212911364807
1510.579083541168,0.7069463737634223
1513.02906098319,0.7001681692766771
1515.5082090818432,0.6936286969835095
1517.9567896268818,0.687490436469438
1520.4046764008053,0.6816752821463425
1522.8817092402714,0.6761187187355205
1525.3282009046197,0.6709529735531923
1527.803822224585,0.6660482470333452
1530.2489199716838,0.6615169514825033
1532.7231309783128,0.6572406841802774
1535.16683599912,0.6533127906990661
1537.6098493197496,0.6496684309492456
1540.0819513813403,0.6462547581993139
1542.5235737559778,0.6431387749098011
1544.994268510025,0.6402271848104235
1547.4345011262485,0.6375714184335601
1549.8740435159852,0.635114815566968
1552.3426338181598,0.6328088773201077
1554.7807882247253,0.6306857717028802
1557.2479742165997,0.628668557736758
1559.6847418242032,0.6267798637076353
1562.1505247037494,0.6249461354142247
1564.5859066952507,0.6231836226652601
1567.0206005171167,0.6214414898588192
