Raman Shift (cm-1),Fitted Intensity
159.26151312198635,0.03602577781571998
162.17892251266312,0.036489674339938945
165.06070388440276,0.03695852785631831
167.97629817665074,0.0374439949924595
170.89098012548493,0.03794086994921551
173.77006778237046,0.03844342215496269
176.68293717714914,0.03896417154726427
179.59489550712533,0.03949756791632757
182.50594319967058,0.04004406533773637
185.38144153980102,0.04059739025962113
188.29068006676243,0.04117136949839885
191.19900923170644,0.041759941089456104
194.07182265961455,0.04235637539865546
196.97834519226308,0.042975614597375006
199.8839596359394,0.043611168864976894
202.75409191031576,0.04425580389149611
205.65790225025557,0.04492571503307816
208.5608057718964,0.04561394117180523
211.42826064439942,0.04631268789135877
214.32936258615155,0.04703956488481721
217.22955897789507,0.04778709060928392
220.09434019320543,0.04854684703358772
222.9927375242005,0.04933804759482517
225.89023057112718,0.050152634534202475
228.75234186693342,0.05098149306092555
231.64803836756255,0.05184566409549725
234.54283184768065,0.052736449950648
237.4022769547155,0.053643954295050436
240.2952763983085,0.05459131104153732
243.18737408261222,0.055569109256108536
246.04415672466348,0.05656657202371277
248.93446287752522,0.05760924252229568
251.82386852998388,0.05868691131174593
254.67799242389083,0.059787804067928774
257.565609045334,0.06094025095099818
260.41796602711474,0.06211869662200473
263.3037952786035,0.0633535705543044
266.18872612093764,0.06463310080361287
269.0384305290536,0.06594352867082742
271.9215764941182,0.06731887014857779
274.8038253026716,0.0687462390407537
277.65088083558294,0.07021043887116481
280.5313472549242,0.07174967752953866
283.37664243438485,0.07333036423733846
286.2553281173605,0.07499388571211082
289.13311872473423,0.07672509981365641
291.97577117291803,0.07850585883083165
294.85178352428557,0.08038300404015919
297.6926797004962,0.08231593716217311
300.5669154435891,0.084355635778424
303.44025818556474,0.08648398873857882
306.2785177554506,0.08867892847890685
309.150086361853,0.09099851368372225
311.98659372863403,0.09339286689458426
314.85638984211255,0.09592539293034172
317.69114662786524,0.09854168370984491
320.55917188903913,0.10131104364477844
323.42630704161274,0.10420925528379626
326.25843576130865,0.10720625188915596
329.1238025236089,0.11038132494737374
331.9541847135806,0.11366609226852091
334.8177847211591,0.11714727985643704
337.6464219965019,0.1207496822944529
340.5082568828984,0.12456811775067177
343.3351508567066,0.12851974154966872
346.1952222534492,0.13270813449067803
349.0203745368344,0.13704192960712472
351.8786840734356,0.14163414267566266
354.7361080202609,0.14644249023003983
357.55864557949826,0.15141444180897035
360.4143101115624,0.15667843047038643
363.23511000427607,0.16211753215027092
366.08901674608205,0.16787121669788357
368.90808057645336,0.173810573309159
371.7602311504961,0.18008667342923768
374.57756052071636,0.18655759698645663
377.42795654749716,0.19338651025128395
380.2435530577968,0.2004174900146962
383.0921961558306,0.20782619691654064
385.90606140446107,0.2154417682465945
388.7529531902692,0.22345264048352392
391.56508877352826,0.23167216374768776
394.41023086164205,0.24030168715630337
397.2206383738594,0.24913804785485985
400.0640323768239,0.258395471236757
402.8727134103756,0.26785371260205415
405.71436093876036,0.2777396343556176
408.5213170840616,0.2878155352729323
411.36121974646085,0.2983204426945378
414.16645259197685,0.30899905841513337
417.00461199500205,0.3201018412973718
419.8081231272481,0.33135603346042813
422.6107791472823,0.3428820274948113
425.446331879084,0.35481150221212965
428.2472685572284,0.3668465419021047
431.0810820327788,0.37926102728586286
433.88030095069917,0.39174145994700116
436.71237676973396,0.4045682281542434
439.5098795071426,0.4174137576846899
442.3402192674366,0.43056282903007226
445.1360074021177,0.4436758127587529
447.930943955329,0.45687995228867934
450.75868780728706,0.4703047015709022
453.5519121161087,0.48359739463376183
456.3779238904244,0.4970426949045002
459.1694375278166,0.5102834498948716
461.99371881542174,0.5235992432242079
464.7835233524238,0.5366325266212599
467.5724790401364,0.5495008436450547
470.39417274803054,0.5623124990095241
473.18142168360646,0.5747182367485223
476.00138886887726,0.5869713331731615
478.7869326185464,0.5987347057515071
481.60517486533354,0.6102456633742221
484.3890149934232,0.6211850055986997
487.17200899273666,0.6316481657015582
489.9876719528438,0.6417086251097877
492.76896466880135,0.6510848822467287
495.5829066375736,0.6599621203127037
498.3624996297294,0.6680911391734559
501.14124842855017,0.6755465006968118
503.9526170105346,0.6823732953338917
506.7296684166504,0.6883802714182641
509.505876786945,0.6936283201174133
512.3146755106209,0.6981457802273072
515.0891888150436,0.7018085752217174
517.8962728359329,0.7046928599164104
520.6690926264382,0.7067228486884063
523.4410713071484,0.7079356254089332
526.2455913408958,0.708333883595356
529.0158788274384,0.7079161003983178
531.785326356061,0.7067048363750468
534.5872859139781,0.7046893956554314
537.3550445639485,0.7019407566464005
540.1219644057746,0.6984670411856744
542.9213669927594,0.6942459394436219
545.686600267225,0.6894145594445371
548.4509958812232,0.6839669712284718
551.2478449957853,0.6778711870232899
554.0105563494981,0.6713199477388467
556.805701690384,0.6642067370466558
559.5667303225964,0.6567539629966802
562.3269232040038,0.6489342781454381
565.0862807140293,0.6408038779305332
567.8780333537688,0.6323178178822897
570.6357112050464,0.6237368430669659
573.3925548263542,0.6150197465709503
576.1817644509756,0.6061186062048355
578.9369307080196,0.5973036621035792
581.6912638744288,0.5885260714451894
584.4779339570123,0.5797374311067308
587.2305920494691,0.5712012846127107
589.9824181885451,0.562864051968178
592.7665521958479,0.554679376628115
595.5167055471175,0.5468893747809831
598.2660280801974,0.5394389153055033
601.0145201715131,0.5323688221295749
603.7952814999189,0.5256391952218078
606.5421038421155,0.5194447091038202
609.2880968749887,0.5137331687885611
612.0663301881068,0.5084719393812767
614.8106557483188,0.503809563269655
617.554153129593,0.4996994785125356
620.2968227067649,0.49615701432743503
623.0716940541533,0.49316147925474174
625.8126991844802,0.4907918144091472
628.552877638358,0.48901250970568083
631.2922297897167,0.4878233996902516
634.0637452701958,0.48721682970917746
636.8014359932095,0.4871994983563283
639.5383015386324,0.48774935082236415
642.3073015987065,0.4888681161011348
645.0425079771339,0.4905106795821716
647.7768903008473,0.4926654464816699
650.5104489421938,0.4953076214162569
653.2431842732913,0.4984093784381144
656.0080062575216,0.5019850379038432
658.7390861754284,0.5059157151387553
661.4693439025905,0.5102055203980058
664.1987798102273,0.5148162078566095
666.9602641357596,0.5197679159521316
669.6880476268889,0.5249001322244549
672.4150104152941,0.5302264108188436
675.141152871307,0.5357016480391967
677.8993055782594,0.5413473618316464
680.6237986072192,0.5469818256420627
683.3474724178923,0.552624518918632
686.0703273797008,0.5582282144463233
688.7923638618704,0.5637460343677239
691.5463630106569,0.5691957349547329
694.2667537902307,0.5744021115863224
696.9863272009134,0.5793875000729765
699.705083611032,0.5841104586145953
702.4230233886883,0.5885319774601625
705.1728783546314,0.5926629432580982
707.8891761429404,0.5963719272171367
710.6046584062024,0.5996813375960625
713.3193255116239,0.6025666526778517
716.033177826208,0.6050082369800145
718.7462157167283,0.6069919162603761
721.491111983778,0.6085250463535664
724.2025123243511,0.6095699077417471
726.9130993442814,0.6101541138983928
729.6228734094693,0.6102929933460357
732.3318348855792,0.6100120383905289
735.0399841380749,0.6093487214899413
737.7799351068679,0.6083411914957529
740.4864512328204,0.6070837414471187
743.1921562345997,0.6056577411822456
745.8970504767931,0.6041814064395
748.6011343237551,0.6028047924775517
751.3044081396256,0.6017135022273965
754.0394271625555,0.6011249728940177
756.741072259374,0.6013011987278415
759.4419084205874,0.6024775345074096
762.1419360094733,0.6048566618327916
764.8411553890837,0.6085362653777815
767.539566922238,0.6134383644912793
770.2371709715626,0.6192499126857983
772.9339678994475,0.6254023435312074
775.6624349602753,0.6311781753604874
778.3576090181923,0.6355578737731344
781.0519770449282,0.6378251992829891
783.7455394020071,0.6374619788568492
786.4382964507422,0.6343614611380153
789.1302485522319,0.6288730033144834
791.8213960673565,0.6217343049587698
794.5117393567816,0.6139136604145391
797.2012787809545,0.6064137324116785
799.922404211542,0.6000285699399142
802.6103273114531,0.5955165600034322
805.2974476305062,0.5930928256783122
807.9837655282827,0.5927814836754033
810.6692813641639,0.5943912999399179
813.3539954973021,0.5975867768036808
816.037908286642,0.6019516936114069
818.7210200909067,0.6070371223773635
821.4033312686151,0.6123939637786806
824.0848421780756,0.6175941001001198
826.7655531773598,0.6222449423276787
829.4777478409233,0.6260395169310319
832.1568504666102,0.6285969086984905
834.8351542594137,0.6297483780641512
837.5126595765614,0.6293500605770965
840.1893667750774,0.6273412043176863
842.8652762117599,0.6237487729915756
845.5403882432074,0.6186891280276592
848.2147032257963,0.6123664728896399
850.8882215157028,0.6050677928425495
853.5609434688704,0.5971538308014598
856.2328694410462,0.5890451762983604
858.9039997877626,0.5812019223656949
861.5743348643446,0.5740948815670466
864.2438750258916,0.5681665765193902
866.9126206273068,0.5637817473627404
869.5805720232747,0.5611703473232815
872.2477295682729,0.560370682885354
874.9140936165568,0.5611852615056051
877.5796645221853,0.5631648537006407
880.2444426389957,0.5656348028010557
882.9084283206321,0.5677702391544105
885.5716219205024,0.5687143406833204
888.2340237918252,0.5677196441748473
890.8956342876045,0.564282007463118
893.5564537606224,0.5582351270093933
896.2164825634645,0.5497826023641564
898.8757210485091,0.5394622181613102
901.566194253428,0.5279173809937119
904.2238436478765,0.5163536817930983
906.88070378462,0.5056075616656526
909.5047788508018,0.49674922325109105
912.1600710251078,0.49053206657546367
914.8145749914547,0.4879691426023584
917.4682911007549,0.4894722202672772
920.1212197037094,0.4942134215122407
922.7733611508156,0.49956857421501283
925.4247157923564,0.5018223039330404
928.0752839784072,0.4983047448924227
930.725066058847,0.48924837505219027
933.3740623833291,0.47744344031746183
936.0222733013143,0.4660883963281908
938.669699162052,0.457003487955696
941.3163403145809,0.450416598018903
943.9621971077358,0.4457206871844779
946.607269890148,0.44218615887758855
949.2515590102339,0.4392599373184363
951.8950648162136,0.4365879393728997
954.5377876560888,0.43395468193474374
957.1797278776648,0.4312280510752882
959.8208858285398,0.4283250523547124
962.4612618561077,0.4251927952203449
965.1008563075484,0.42179800663404055
967.7396695298376,0.41812102493926395
970.3777018697583,0.41415216800793386
973.0149536738754,0.40988940318484013
975.65142528855,0.40533675935512065
978.2871170599428,0.4005031780841209
980.8902880408277,0.3954646315080938
983.5244305486303,0.3901143451670953
986.1577942462391,0.3845311725783707
988.7903794789963,0.37873631719398704
991.4221865920408,0.37275272647186264
994.0532159303111,0.36660466826330895
996.6834678385349,0.360317342240143
999.3129426612431,0.3539165220724931
1001.9416407427561,0.3474282261301706
1004.5695624271975,0.3408784157270363
1007.1967080584836,0.33429272063571885
1009.8230779803271,0.327696191945621
1012.4170434801454,0.32119222431324146
1015.041872349022,0.31464522048470284
1017.665926534246,0.30815674717327013
1020.2892063787294,0.3017476365849512
1022.9117122251773,0.29543731987811106
1025.5334444160871,0.2892437423833237
1028.15440329376,0.28318330364886396
1030.7745892002931,0.27727082096480893
1033.3940024775802,0.27151951479652714
1035.9810981708106,0.2660071555393027
1038.598976513018,0.2606092656518674
1041.2160832463414,0.25540268390958487
1043.832418711885,0.250394489131289
1046.447983250535,0.24559035253633782
1049.0627772029802,0.24099461396434843
1051.676800909714,0.23661036608973554
1054.290054711022,0.232439544683836
1056.8710678120515,0.22852941606974408
1059.48279208834,0.22478452540683905
1062.093747474777,0.22125289908780554
1064.7039343108554,0.21793281602173012
1067.313352935871,0.21482187960176405
1069.9220036889128,0.21191711071364971
1072.4984711957586,0.20924640079318135
1075.105596462614,0.20674077107733912
1077.7119548694973,0.20442979987290946
1080.317546754708,0.20230902758064678
1082.9223724563308,0.20037380915760927
1085.5264323122756,0.1986193772822479
1088.1297266602414,0.19704089963001803
1090.700904617097,0.19564948724991665
1093.3026781742628,0.19440643735776758
1095.90368723129,0.1933249972045136
1098.5039321250988,0.19240053121750195
1101.1034131923952,0.19162854078410146
1103.6708254619662,0.19101134086853444
1106.2687890782108,0.19052976553247675
1108.8659898728438,0.19018827123307258
1111.4624281817887,0.18998311784104643
1114.0581043407765,0.18991079011156067
1116.6217591897112,0.18996655736192924
1119.2159212276165,0.19014876413151888
1121.8093221175222,0.1904546979375695
1124.4019621943662,0.19088179454882412
1126.9938417929043,0.1914277318336613
1129.5537474636767,0.19208175654683507
1132.1441162613737,0.19285799398565323
1134.7337255797866,0.19374755591747198
1137.322575752878,0.19474906101299616
1139.9106671144218,0.19586135388216097
1142.466831825419,0.19706812475212634
1145.0534156966605,0.19839809449436982
1147.6392417524658,0.1998366961450944
1150.2243103258224,0.2013836246816661
1152.7774899721844,0.20301818935659777
1155.3610536951164,0.2047803455353483
1157.9438609293902,0.20665108897672485
1160.5259120072114,0.20863088219462156
1163.1072072606003,0.21072036789456083
1165.6566606759006,0.2128931969403034
1168.2364543720396,0.2152033436572172
1170.8154932346333,0.21762613184847907
1173.3937775949307,0.22016287836991433
1175.940257690534,0.22278241131493623
1178.5170431196166,0.22555023425224757
1181.0930750349762,0.22843687832648285
1183.6683537670833,0.2314442679296611
1186.2118657414467,0.23453601654750736
1188.7856481622657,0.23778971336101357
1191.3586783861065,0.2411707326395382
1193.9309567426717,0.24468153632323306
1196.471505782134,0.24828001621038082
1199.0422904412299,0.25205661181476874
1201.6123242170252,0.25597104876504484
1204.1506566845674,0.2599765282044712
1206.7191987172919,0.2641737151634305
1209.2869908489847,0.26851769921989516
1211.8540334080099,0.27301163610501916
1214.389411983815,0.27760182831526836
1216.9549654029506,0.2824034617866682
1219.5197702293917,0.28736478174734104
1222.0529389950316,0.2924263750005551
1224.61625662804,0.2977149660683612
1227.1788266466283,0.3031730949988359
1229.7406493778217,0.3088039906536198
1232.2708732581305,0.31453978523399173
1234.8312113884967,0.32052339436920413
1237.3908032074723,0.32668884803224435
1239.9188240118929,0.3329612722153142
1242.4769331685857,0.3394961605351318
1245.0342969881858,0.34622042107331075
1247.560117592806,0.3530515763436588
1250.116000685306,0.3601578721862238
1252.6711394133126,0.3674584167429625
1255.194762689218,0.37486255167764987
1257.7484226219312,0.38255117720207
1260.3013391610693,0.3904349346918896
1262.822767974354,0.3984144898340667
1265.3742076466478,0.4066829511459316
1267.924904894593,0.4151419141094616
1270.4441421063602,0.4236830507571653
1272.993364412563,0.43251082582284184
1275.5418452619597,0.4415174159999137
1278.0588937283464,0.4505854928204878
1280.6059015577484,0.4599296016966177
1283.1521688962057,0.469432498755515
1285.6670314683906,0.4789683264411388
1288.2118277052796,0.4887600582607048
1290.755884415401,0.4986815994617724
1293.2685639396113,0.5085996912465337
1295.811151463251,0.5187438304286646
1298.3530004226377,0.5289804101219836
1300.8634997401532,0.5391706913242192
1303.403881424827,0.5495487315055145
1305.9129317732186,0.5598497843665355
1308.4518474532706,0.5703099257572278
1310.9900261682633,0.5807884045570755
1313.4969010306886,0.5911437208043062
1316.0336156473168,0.6016136873083008
1318.5695942569437,0.6120576778669513
1321.074296461582,0.6223370929906963
1323.6088128757874,0.6326902555950323
1326.112071126503,0.6428566728192875
1328.6451266095319,0.6530744764538265
1331.1774476773753,0.6632108815949307
1333.6785379692556,0.6731386101953939
1336.209400003383,0.6830947834472415
1338.7090494631484,0.6928362133543794
1341.2384537241596,0.7025988033745219
1343.76712515721,0.712263017196412
1346.2646113435585,0.7217154153834844
1348.7918268954818,0.7311889663022959
1351.2878753625337,0.7404586774433726
1353.8136362903097,0.7497545903056678
1356.338665972784,0.7589673778979865
1358.832555838333,0.7679916007953022
1361.3561327831994,0.7770509676994372
1363.8485880333137,0.7859298310900761
1366.3707134939323,0.794846120962758
1368.8921092873425,0.8036907726278417
1371.3824105944368,0.8123560865949553
1373.9023567847216,0.8210484946330107
1376.3912265713043,0.8295509811860733
1378.9097244082113,0.8380602107069894
1381.3971639082774,0.8463574139277058
1383.914214640121,0.8546276275124534
1386.4002250862322,0.8626511107087317
1388.9158299598967,0.8705993091407325
1391.4307079939972,0.8783455224185762
1393.9145728441363,0.8857695799431471
1396.4280068914595,0.8930187309784153
1398.9104457665926,0.8998824219710744
1401.422437070447,0.9064893800128285
1403.9034511981918,0.9126406398585768
1406.4140010004412,0.9184446575352574
1408.893591607004,0.9237201374348885
1411.4027011481012,0.928553772977311
1413.8808694582804,0.9327886263652501
1416.388539977259,0.9364884545756954
1418.8954870924463,0.9395606427809489
1421.3715199489052,0.9419457616944249
1423.877029901585,0.9436716356170862
1426.3516435212223,0.9446711506827371
1428.8557175468777,0.9449477225748496
1431.3289131495767,0.9444794359365556
1433.8315524822574,0.943245215139306
1436.3033312865118,0.9412713163690961
1438.8045371588632,0.9385123150211714
1441.2749003817698,0.9350435501146432
1443.7746740250223,0.9307955989997044
1446.2436228822844,0.925891623640855
1448.7419655262602,0.9202387831196356
1451.2095012321843,0.914004745144018
1453.7064141053015,0.9070741133650748
1456.1725378728079,0.8996539996118396
1458.6680222020732,0.8916076698184662
1461.1327352426997,0.8831753289425066
1463.6267922537227,0.8742005429615415
1466.090095777603,0.8649494920919123
1468.582726694589,0.855248134960913
1471.044621910496,0.8453812573298729
1473.5358279562424,0.8351597466128351
1475.996316071556,0.8248798199221258
1478.4860984674815,0.814340211861737
1480.9451806882025,0.8038419347908553
1483.4335406543069,0.7931747676305387
1485.8912181850574,0.7826386448487088
1488.3781569399653,0.7720177351979738
1490.8344309839958,0.761605899179692
1493.2900079848114,0.7513097626494288
1495.7748215041174,0.7410388793676369
1498.2289968168734,0.7310706300791185
1500.7123921617567,0.7211895281874354
1503.1651669862695,0.7116582284487997
1505.647145370498,0.7022666032571381
1508.0985209052233,0.6932604590976139
1510.579083541168,0.68443753345249
1513.02906098319,0.6760252746887163
1515.5082090818432,0.6678314008122995
1517.9567896268818,0.6600639975693108
1520.4046764008053,0.6526310202216087
1522.8817092402714,0.6454549399758154
1525.3282009046197,0.6387138473771438
1527.803822224585,0.6322469273227178
1530.2489199716838,0.6262120096838252
1532.7231309783128,0.6204624427135167
1535.16683599912,0.6151359004411545
1537.6098493197496,0.6101587671711216
1540.0819513813403,0.6054732043556003
1542.5235737559778,0.6011873352429684
1544.994268510025,0.5971905014122623
1547.4345011262485,0.5935717554561103
1549.8740435159852,0.5902725186518392
1552.3426338181598,0.587248607537178
1554.7807882247253,0.5845619629520635
1557.2479742165997,0.5821346947982573
1559.6847418242032,0.580011875122265
1562.1505247037494,0.5781268064697702
1564.5859066952507,0.5765089523934854
1567.0206005171167,0.5751169824392158
1569.4842852159818,0.5739193157877263
