Raman Shift (cm-1),Fitted Intensity
159.26151312198635,0.03570597911447163
162.17892251266312,0.03616700786403564
165.06070388440276,0.036632982860346636
167.97629817665074,0.03711549026226219
170.89098012548493,0.037609357523530146
173.77006778237046,0.038108889565873834
176.68293717714914,0.03862653233355335
179.59489550712533,0.03915677043846056
182.50594319967058,0.039700056642964734
185.38144153980102,0.0402501552381368
188.29068006676243,0.04082081390872311
191.19900923170644,0.04140600778546783
194.07182265961455,0.04199904699450955
196.97834519226308,0.042614790361920674
199.8839596359394,0.043246787015393334
202.75409191031576,0.04388784447211801
205.65790225025557,0.04455407018029936
208.5608057718964,0.045238543965477385
211.42826064439942,0.04593351547034797
214.32936258615155,0.04665650152990172
217.22955897789507,0.047400063696378676
220.09434019320543,0.04815583041182942
222.9927375242005,0.04894291687389142
225.89023057112718,0.04975331074329746
228.75234186693342,0.05057794631860402
231.64803836756255,0.05143776041853251
234.54283184768065,0.05232410329060047
237.4022769547155,0.053227130532996984
240.2952763983085,0.05416986555677228
243.18737408261222,0.055142948089301105
246.04415672466348,0.05613565623428043
248.93446287752522,0.057173415665319936
251.82386852998388,0.05824607056467681
254.67799242389083,0.05934190499365065
257.565609045334,0.06048912392855626
260.41796602711474,0.06166229313156301
263.3037952786035,0.06289171136608349
266.18872612093764,0.06416566583376736
269.0384305290536,0.06547046253289898
271.9215764941182,0.06683997774304351
274.8038253026716,0.06826138813682274
277.65088083558294,0.06971956621177271
280.5313472549242,0.07125257020613546
283.37664243438485,0.0728269531189569
286.2553281173605,0.07448394482448048
289.13311872473423,0.07620847304431394
291.97577117291803,0.07798246711965494
294.85178352428557,0.07985259969796103
297.6926797004962,0.0817784336939472
300.5669154435891,0.08381076949902354
303.44025818556474,0.08593157398721435
306.2785177554506,0.0881188661481973
309.150086361853,0.09043051339056726
311.98659372863403,0.09281682005320492
314.85638984211255,0.09534098940604506
317.69114662786524,0.09794880445033471
320.55917188903913,0.10070935697325605
323.42630704161274,0.10359852142468282
326.25843576130865,0.10658633393693098
329.1238025236089,0.10975185503899094
331.9541847135806,0.11302692000557324
334.8177847211591,0.11649801042941385
337.6464219965019,0.12009015033474359
340.5082568828984,0.12389789889983238
343.3351508567066,0.12783865380555812
346.1952222534492,0.13201572103873122
349.0203745368344,0.13633798993559887
351.8786840734356,0.14091818426026315
354.7361080202609,0.14571414219128687
357.55864557949826,0.15067347174113116
360.4143101115624,0.15592428517569712
363.23511000427607,0.1613499548677878
366.08901674608205,0.1670896085211921
368.90808057645336,0.1730146502200978
371.7602311504961,0.1792757859117711
374.57756052071636,0.18573143046406476
377.42795654749716,0.19254435906418613
380.2435530577968,0.1995590052653865
383.0921961558306,0.20695061053935254
385.90606140446107,0.21454869272582766
388.7529531902692,0.22254123824672148
391.56508877352826,0.2307420037433988
394.41023086164205,0.2393518542361815
397.2206383738594,0.24816806179311934
400.0640323768239,0.25740433012050545
402.8727134103756,0.26684088055339694
405.71436093876036,0.27670401221188384
408.5213170840616,0.2867565240486205
411.36121974646085,0.2972368339885322
414.16645259197685,0.30789018153904113
417.00461199500205,0.31896636487825514
419.8081231272481,0.3301932051830461
422.6107791472823,0.3416907273636017
425.446331879084,0.3535901845979276
428.2472685572284,0.36559431030702594
431.0810820327788,0.3779761692548702
433.88030095069917,0.3904229652614822
436.71237676973396,0.4032141951965444
439.5098795071426,0.41602304600816
442.3402192674366,0.429133322145273
445.1360074021177,0.4422062209124907
447.930943955329,0.45536843139747396
450.75868780728706,0.4687487568652044
453.5519121161087,0.4819954707175156
456.3779238904244,0.49539199990552935
459.1694375278166,0.5085822179202107
461.99371881542174,0.5218443437444895
464.7835233524238,0.53482195243701
467.5724790401364,0.5476318005206497
470.39417274803054,0.5603812593127454
473.18142168360646,0.5727223658431171
476.00138886887726,0.5849066355546297
478.7869326185464,0.5965984114077864
481.60517486533354,0.6080330466744434
484.3890149934232,0.6188929173930808
487.17200899273666,0.6292723190553006
489.9876719528438,0.6392433733397482
492.76896466880135,0.648526423207673
495.5829066375736,0.6573041024840068
498.3624996297294,0.6653292688647723
501.14124842855017,0.6726750079652204
503.9526170105346,0.6793846429454203
506.7296684166504,0.6852693636616815
509.505876786945,0.6903883516495644
512.3146755106209,0.6947679022414938
515.0891888150436,0.6982868609087056
517.8962728359329,0.7010175532742957
520.6690926264382,0.702887503317532
523.4410713071484,0.7039316880829074
526.2455913408958,0.7041503075488946
529.0158788274384,0.7035458493576057
531.785326356061,0.7021385742644948
534.5872859139781,0.6999150997275616
537.3550445639485,0.6969512834432352
540.1219644057746,0.6932528528877948
542.9213669927594,0.688794764486244
545.686600267225,0.6837200572633275
548.4509958812232,0.6780204900777975
551.2478449957853,0.6716615467355366
554.0105563494981,0.6648431190415975
556.805701690384,0.6574534181021446
559.5667303225964,0.6497228785487069
562.3269232040038,0.6416226519517229
565.0862807140293,0.6332110517232572
567.8780333537688,0.6244423032315225
570.6357112050464,0.6155868536260227
573.3925548263542,0.6066035139139978
576.1817644509756,0.5974452709561784
578.9369307080196,0.5883929104368828
581.6912638744288,0.5793993371200857
584.4779339570123,0.5704194518323125
587.2305920494691,0.5617273024056233
589.9824181885451,0.5532732187376723
592.7665521958479,0.545017080586123
595.5167055471175,0.5372099219295141
598.2660280801974,0.5298028955745421
601.0145201715131,0.5228444298037326
603.7952814999189,0.5163050388651402
606.5421038421155,0.510382520865387
609.2880968749887,0.505033802479617
612.0663301881068,0.5002393260957875
614.8106557483188,0.49614286951358233
617.554153129593,0.4927082859462284
620.2968227067649,0.4899553384836006
623.0716940541533,0.48787818378347986
625.8126991844802,0.4865356725197309
628.552877638358,0.4859026462317557
631.2922297897167,0.4859772881018801
634.0637452701958,0.48676565117259873
636.8014359932095,0.48823558107193543
639.5383015386324,0.49037329865784285
642.3073015987065,0.4931915567092672
645.0425079771339,0.49659293578794667
647.7768903008473,0.5005719278260562
650.5104489421938,0.5050884053421033
653.2431842732913,0.5100977284829069
656.0080062575216,0.5156193889896759
658.7390861754284,0.5214690979331168
661.4693439025905,0.5276547037645432
664.1987798102273,0.5341184982787403
666.9602641357596,0.5408826176964032
669.6880476268889,0.547724842833354
672.4150104152941,0.554663526341737
675.141152871307,0.561637941733901
677.8993055782594,0.5686716150377431
680.6237986072192,0.5755381971407637
683.3474724178923,0.5822655104662494
686.0703273797008,0.5888000099292064
688.7923638618704,0.595091256111861
691.5463630106569,0.6011626798398573
694.2667537902307,0.60682626033579
696.9863272009134,0.612117271078744
699.705083611032,0.6170012588614393
702.4230233886883,0.6214483465546297
705.1728783546314,0.6254784836378977
707.8891761429404,0.6289752158269514
710.6046584062024,0.6319740210517083
713.3193255116239,0.634464605400692
716.033177826208,0.6364418322511176
718.7462157167283,0.6379058849855961
721.491111983778,0.6388709705779118
724.2025123243511,0.6393258810827814
726.9130993442814,0.6393031977710649
729.6228734094693,0.6388280189210228
732.3318348855792,0.6379334567269529
735.0399841380749,0.6366620122552848
737.7799351068679,0.6350466050513924
740.4864512328204,0.6331944035384677
743.1921562345997,0.6311740637497086
745.8970504767931,0.629094754062692
748.6011343237551,0.6270952513220168
751.3044081396256,0.6253512214868879
754.0394271625555,0.6240700492429991
756.741072259374,0.6235481657850316
759.4419084205874,0.6240641910520214
762.1419360094733,0.6259183994664109
764.8411553890837,0.6293561065096648
767.539566922238,0.6344819092095265
770.2371709715626,0.6411595191657832
772.9339678994475,0.6489278898881599
775.6624349602753,0.6570710270357161
778.3576090181923,0.6642966681721066
781.0519770449282,0.6695224944631355
783.7455394020071,0.6717368449004072
786.4382964507422,0.6703534268601585
789.1302485522319,0.6653773720808873
791.8213960673565,0.6574165260016136
794.5117393567816,0.6475327379491135
797.2012787809545,0.6369886683399758
799.922404211542,0.6268655019865385
802.6103273114531,0.6183333796284345
805.2974476305062,0.6118143364313565
807.9837655282827,0.6074939747239416
810.6692813641639,0.605271181227214
813.3539954973021,0.6048589157046871
816.037908286642,0.605876956012534
818.7210200909067,0.6079202539198949
821.4033312686151,0.6106009347487723
824.0848421780756,0.6135698678629087
826.7655531773598,0.6165256536909925
829.4777478409233,0.6192473029508366
832.1568504666102,0.6214680830636954
834.8351542594137,0.6230729577478331
837.5126595765614,0.623961439185696
840.1893667750774,0.6240801127761388
842.8652762117599,0.6234195236349337
845.5403882432074,0.6220096455811424
848.2147032257963,0.6199139243936621
850.8882215157028,0.6172221078207308
853.5609434688704,0.6140422472995565
856.2328694410462,0.6104923624186201
858.9039997877626,0.6066922952705092
861.5743348643446,0.6027562537070279
864.2438750258916,0.5987864621584933
866.9126206273068,0.5948682221725156
869.5805720232747,0.5910665499522856
872.2477295682729,0.5874244221889893
874.9140936165568,0.5839625391530212
877.5796645221853,0.5806804161892134
880.2444426389957,0.5775585476962032
882.9084283206321,0.5745613530092271
885.5716219205024,0.5716406090425983
888.2340237918252,0.5687390948657997
890.8956342876045,0.5657942116972673
893.5564537606224,0.5627413907390351
896.2164825634645,0.5595171540101291
898.8757210485091,0.5560617442592686
901.566194253428,0.5522742836787796
904.2238436478765,0.5481982287480462
906.88070378462,0.5437529288139826
909.5047788508018,0.5389714469768094
912.1600710251078,0.5337197147924344
914.8145749914547,0.5280462947741548
917.4682911007549,0.521954250738676
920.1212197037094,0.5154568735057204
922.7733611508156,0.5085774423092142
925.4247157923564,0.5013489581401019
928.0752839784072,0.4938139120596865
930.725066058847,0.48602415855229747
933.3740623833291,0.4780409834225619
936.0222733013143,0.4699355050494215
938.669699162052,0.4617896737981537
941.3163403145809,0.4536984704973347
943.9621971077358,0.445774865822413
946.607269890148,0.43816214363103906
949.2515590102339,0.43106935425486587
951.8950648162136,0.4248967491967231
954.5377876560888,0.4208504639340712
957.1797278776648,0.4264731659887864
959.8208858285398,0.48990651920947653
962.4612618561077,0.4473220007724923
965.1008563075484,0.4059752125211097
967.7396695298376,0.3978797614155416
970.3777018697583,0.39462346568077167
973.0149536738754,0.3931412932228478
975.65142528855,0.3927091394665252
978.2871170599428,0.3929533174772389
980.8902880408277,0.39354458467720776
983.5244305486303,0.39416893720454405
986.1577942462391,0.3944717436961269
988.7903794789963,0.39410037933102304
991.4221865920408,0.39272122492236106
994.0532159303111,0.3900456343357729
996.6834678385349,0.38585471362541873
999.3129426612431,0.3800191114119861
1001.9416407427561,0.372510850815284
1004.5695624271975,0.36340542555741556
1007.1967080584836,0.35287383338251843
1009.8230779803271,0.34116569533493313
1012.4170434801454,0.32874129551627795
1015.041872349022,0.31562747635512123
1017.665926534246,0.30230620963736055
1020.2892063787294,0.2890907586910209
1022.9117122251773,0.27625404388596103
1025.5334444160871,0.2640165858407342
1028.15440329376,0.2525411086804173
1030.7745892002931,0.24193309781558245
1033.3940024775802,0.2322460015426212
1035.9810981708106,0.2235895142155354
1038.598976513018,0.21572851445064806
1041.2160832463414,0.2087257957853152
1043.832418711885,0.2025176862387456
1046.447983250535,0.19703275600400966
1049.0627772029802,0.19219766074427874
1051.676800909714,0.1879412936217879
1054.290054711022,0.1841974422938604
1056.8710678120515,0.18094341291342847
1059.48279208834,0.17804735297868687
1062.093747474777,0.17550533616542752
1064.7039343108554,0.17327753205148427
1067.313352935871,0.17132986737568418
1069.9220036889128,0.16963331402754978
1072.4984711957586,0.16817963478188458
1075.105596462614,0.1669125641659454
1077.7119548694973,0.1658332241373513
1080.317546754708,0.16492630793985313
1082.9223724563308,0.16417870736668566
1085.5264323122756,0.16357916301468323
1088.1297266602414,0.1631179752371987
1090.700904617097,0.16279001271740362
1093.3026781742628,0.16258009129287931
1095.90368723129,0.16248668086415122
1098.5039321250988,0.16250431772890514
1101.1034131923952,0.1626282616296469
1103.6708254619662,0.162851085838118
1106.2687890782108,0.1631747046632604
1108.8659898728438,0.1635939417540423
1111.4624281817887,0.16410616813269438
1114.0581043407765,0.16470914745821094
1116.6217591897112,0.16539213947422732
1119.2159212276165,0.16617025545367076
1121.8093221175222,0.16703442743134111
1124.4019621943662,0.16798365464980636
1126.9938417929043,0.16901718611175726
1129.5537474636767,0.17012054438359975
1132.1441162613737,0.17132034163598908
1134.7337255797866,0.17260352826990663
1137.322575752878,0.17397020110728956
1139.9106671144218,0.1754206427988489
1142.466831825419,0.17693632071737173
1145.0534156966605,0.17855482848460422
1147.6392417524658,0.1802589891140621
1150.2243103258224,0.18204976425278235
1152.7774899721844,0.18390511597932857
1155.3610536951164,0.18587156272169902
1157.9438609293902,0.18792844333093497
1160.5259120072114,0.19007734757474293
1163.1072072606003,0.19232002055102748
1165.6566606759006,0.1946296128808204
1168.2364543720396,0.1970644917920355
1170.8154932346333,0.19959928485121092
1173.3937775949307,0.2022363646617493
1175.940257690534,0.204944596107162
1178.5170431196166,0.20779270369809516
1181.0930750349762,0.21075115949661014
1183.6683537670833,0.21382299570864163
1186.2118657414467,0.2169722954094961
1188.7856481622657,0.22027921649061158
1191.3586783861065,0.22370961918260285
1193.9309567426717,0.22726724339146465
1196.471505782134,0.23091077498878676
1199.0422904412299,0.234733152290631
1201.6123242170252,0.23869504294370697
1204.1506566845674,0.24275059958437398
1206.7191987172919,0.24700338226539448
1209.2869908489847,0.25140969599153246
1211.8540334080099,0.2559746241857172
1214.389411983815,0.2606454758678165
1216.9549654029506,0.2655415919791375
1219.5197702293917,0.2706126706550021
1222.0529389950316,0.2758001833723756
1224.61625662804,0.2812366176979819
1227.1788266466283,0.286866001388451
1229.7406493778217,0.2926946774787149
1232.2708732581305,0.29865517111925516
1234.8312113884967,0.304899389358215
1237.3908032074723,0.31136258074298334
1239.9188240118929,0.3179695305485874
1242.4769331685857,0.32488808313453565
1245.0342969881858,0.3320457848256075
1247.560117592806,0.3393586206872022
1250.116000685306,0.3470114282007708
1252.6711394133126,0.35492286030777664
1255.194762689218,0.3629988692929715
1257.7484226219312,0.3714420606751998
1260.3013391610693,0.38016076530898935
1262.822767974354,0.3890494998565695
1265.3742076466478,0.39832892521156227
1267.924904894593,0.40789537887027716
1270.4441421063602,0.4176304125767125
1272.993364412563,0.4277722888328593
1275.5418452619597,0.43820349442430334
1278.0588937283464,0.4487910880944747
1280.6059015577484,0.45978947390851743
1283.1521688962057,0.47106542454503475
1285.6670314683906,0.48247025300561647
1288.2118277052796,0.4942718410904899
1290.755884415401,0.5063197669726945
1293.2685639396113,0.5184491131339496
1295.811151463251,0.530937371159667
1298.3530004226377,0.5436165056796215
1300.8634997401532,0.5563064000046598
1303.403881424827,0.5692894293072313
1305.9129317732186,0.5822232914922869
1308.4518474532706,0.5953909041544588
1310.9900261682633,0.6085999296566128
1313.4969010306886,0.6216541560456706
1316.0336156473168,0.634833807804589
1318.5695942569437,0.6479402777256892
1321.074296461582,0.6607783785339164
1323.6088128757874,0.6736228450386763
1326.112071126503,0.6861278707072884
1328.6451266095319,0.6985639038548008
1331.1774476773753,0.7107455390816592
1333.6785379692556,0.722503494154033
1336.209400003383,0.7341017704097962
1338.7090494631484,0.7452435840572877
1341.2384537241596,0.7561886787081255
1343.76712515721,0.7667929188584327
1346.2646113435585,0.7769342569859042
1348.7918268954818,0.7868651974448377
1351.2878753625337,0.7963565700417232
1353.8136362903097,0.8056546911962477
1356.338665972784,0.8146606280422591
1358.832555838333,0.8232922863794783
1361.3561327831994,0.8317834412444229
1363.8485880333137,0.8399531269287294
1366.3707134939323,0.8480243471732872
1368.8921092873425,0.8559188325826788
1371.3824105944368,0.8635645529326677
1373.9023567847216,0.8711649724380371
1376.3912265713043,0.878549812454405
1378.9097244082113,0.8859077307238592
1381.3971639082774,0.8930648969224028
1383.914214640121,0.900194053637719
1386.4002250862322,0.9071161771622208
1388.9158299598967,0.9139871740969866
1391.4307079939972,0.9207032844482465
1393.9145728441363,0.927163020620626
1396.4280068914595,0.9334954074369621
1398.9104457665926,0.9395154596185427
1401.422437070447,0.9453332662053138
1403.9034511981918,0.9507693909387126
1406.4140010004412,0.955914138523429
1408.893591607004,0.9606003748259048
1411.4027011481012,0.964897809332735
1413.8808694582804,0.9686591827887817
1416.388539977259,0.9719328940672617
1418.8954870924463,0.9746282292311136
1421.3715199489052,0.9766850790963109
1423.877029901585,0.9781187869086388
1426.3516435212223,0.9788649017684149
1428.8557175468777,0.978916335110958
1431.3289131495767,0.9782525470661122
1433.8315524822574,0.9768438552562605
1436.3033312865118,0.9747172691936661
1438.8045371588632,0.9718205052061434
1441.2749003817698,0.968229530322495
1443.7746740250223,0.9638696208013332
1446.2436228822844,0.9588647660573001
1448.7419655262602,0.9531181780965313
1451.2095012321843,0.9467987147928973
1453.7064141053015,0.939788189346254
1456.1725378728079,0.9322952899913597
1458.6680222020732,0.9241814740732789
1461.1327352426997,0.9156888219299877
1463.6267922537227,0.9066599318476336
1466.090095777603,0.8973629923040847
1468.582726694589,0.8876237341110172
1471.044621910496,0.8777288703009027
1473.5358279562424,0.8674897405236822
1475.996316071556,0.8572041736640985
1478.4860984674815,0.8466720148924151
1480.9451806882025,0.836195339155873
1483.4335406543069,0.8255657041381047
1485.8912181850574,0.815083340083241
1488.3781569399653,0.8045348953729506
1490.8344309839958,0.7942135673588268
1493.2900079848114,0.7840277367696973
1495.7748215041174,0.7738895870804743
1498.2289968168734,0.7640741077104207
1500.7123921617567,0.7543702446201317
1503.1651669862695,0.7450369571423776
1505.647145370498,0.7358694031823033
1508.0985209052233,0.7271083053366221
1510.579083541168,0.7185575567075729
1513.02906098319,0.7104380776734344
1515.5082090818432,0.7025646039472823
1517.9567896268818,0.6951372211901355
1520.4046764008053,0.688067160937674
1522.8817092402714,0.6812811161865476
1525.3282009046197,0.6749469818831229
1527.803822224585,0.6689128663694938
1530.2489199716838,0.6633249860865122
1532.7231309783128,0.658046178084714
1535.16683599912,0.6532011638992373
1537.6098493197496,0.6487200762855916
1540.0819513813403,0.6445492966781736
1542.5235737559778,0.6407822292387184
1544.994268510025,0.6373182603103589
1547.4345011262485,0.6342307764723073
1549.8740435159852,0.631464520284914
1552.3426338181598,0.6289784453214483
1554.7807882247253,0.6268179160527824
1557.2479742165997,0.6249139360393597
1559.6847418242032,0.6232948434149771
1562.1505247037494,0.6219017966805522
1564.5859066952507,0.6207478305569675
1567.0206005171167,0.6197929470209793
1569.4842852159818,0.6190054320771972
