Raman Shift (cm-1),Fitted Intensity
170.89098012548493,0.266987615564003
173.77006778237046,0.2823547161647225
176.68293717714914,0.2986757205587295
179.59489550712533,0.31573657400197497
182.50594319967058,0.33348896583670834
185.38144153980102,0.35164660588035646
188.29068006676243,0.37056725689947384
191.19900923170644,0.38993824345669437
194.07182265961455,0.40940888076704246
196.97834519226308,0.42931842801488296
199.8839596359394,0.4492871174710055
202.75409191031576,0.4689183485165097
205.65790225025557,0.48851310473409343
208.5608057718964,0.5076501740371882
211.42826064439942,0.5259231618155299
214.32936258615155,0.5435797151202052
217.22955897789507,0.5602008099948971
220.09434019320543,0.5754203910771963
222.9927375242005,0.589424246702703
225.89023057112718,0.6018506255100706
228.75234186693342,0.612428308391467
231.64803836756255,0.6212785440726527
234.54283184768065,0.6281512919988549
237.4022769547155,0.6329155839379721
240.2952763983085,0.6356285981241419
243.18737408261222,0.6361916855956038
246.04415672466348,0.6346377092743283
248.93446287752522,0.6309603875633861
251.82386852998388,0.6252263520263335
254.67799242389083,0.6176268962445909
257.565609045334,0.6080915753807357
260.41796602711474,0.5969802482501545
263.3037952786035,0.5841791310061428
266.18872612093764,0.5699831338613269
269.0384305290536,0.554764706148352
271.9215764941182,0.5383454189141649
274.8038253026716,0.5210954764649435
277.65088083558294,0.5034242265839737
280.5313472549242,0.4850935026997754
283.37664243438485,0.46671750540982926
286.2553281173605,0.44802425340173874
289.13311872473423,0.4293941944212499
291.97577117291803,0.41119103404988255
294.85178352428557,0.393105657373391
297.6926797004962,0.3756803759127922
300.5669154435891,0.3585924609686078
303.44025818556474,0.34213646588452956
306.2785177554506,0.3265613308513905
309.150086361853,0.3115417327420152
311.98659372863403,0.29747069859770214
314.85638984211255,0.28403238188394153
317.69114662786524,0.27155834495728415
320.55917188903913,0.2597497979000781
323.42630704161274,0.2487550880324242
326.25843576130865,0.23867688899165876
329.1238025236089,0.2292526853821214
331.9541847135806,0.22068312714448196
334.8177847211591,0.2127343402764939
337.6464219965019,0.2055664818654855
340.5082568828984,0.19897602531704112
343.3351508567066,0.1930891586432475
346.1952222534492,0.18773309641112085
349.0203745368344,0.1830057833060979
351.8786840734356,0.17876461069298163
354.7361080202609,0.17504267929746475
357.55864557949826,0.17185046401210397
360.4143101115624,0.16908843968013934
363.23511000427607,0.16680254124533558
366.08901674608205,0.16492012414696666
368.90808057645336,0.1634713544155979
371.7602311504961,0.16240916824434254
374.57756052071636,0.16174962914376798
377.42795654749716,0.16147027866747365
380.2435530577968,0.1615740940057619
383.0921961558306,0.1620626967927815
385.90606140446107,0.16292641478315442
388.7529531902692,0.16419094513552215
391.56508877352826,0.16583385128614922
394.41023086164205,0.1679054407693899
397.2206383738594,0.17036982451857693
400.0640323768239,0.17330296014123373
402.8727134103756,0.1766541729786176
405.71436093876036,0.180526521261312
408.5213170840616,0.18485244992534872
411.36121974646085,0.1897638164670722
414.16645259197685,0.19517318059375655
417.00461199500205,0.20124290571403025
419.8081231272481,0.2078615987619567
422.6107791472823,0.21513181871856568
425.446331879084,0.22318809370832954
428.2472685572284,0.23187300386039836
431.0810820327788,0.24142954037070938
433.88030095069917,0.2516610727572101
436.71237676973396,0.2628420039849702
439.5098795071426,0.2747287060614215
442.3402192674366,0.28762414634406097
445.1360074021177,0.3012296984739509
447.930943955329,0.3156926531562657
450.75868780728706,0.33119046935916935
453.5519121161087,0.34732923374302643
456.3779238904244,0.36445801957073354
459.1694375278166,0.38211420546215263
461.99371881542174,0.40065057499544804
464.7835233524238,0.41953675241146254
467.5724790401364,0.43888372369833
470.39417274803054,0.4588066445480599
473.18142168360646,0.4786890732974255
476.00138886887726,0.49884922806557774
478.7869326185464,0.5186342083826174
481.60517486533354,0.5383325704043083
484.3890149934232,0.5572805920528983
487.17200899273666,0.5755161879778213
489.9876719528438,0.5930403767487669
492.76896466880135,0.6092342692337658
495.5829066375736,0.6242892778383583
498.3624996297294,0.6376617063127403
501.14124842855017,0.6493702843630372
503.9526170105346,0.659372461763212
506.7296684166504,0.6673011351538854
509.505876786945,0.6731846622558304
512.3146755106209,0.6769815549307404
515.0891888150436,0.6785575577698771
517.8962728359329,0.6779383414041632
520.6690926264382,0.6751585690472384
523.4410713071484,0.6702748296179003
526.2455913408958,0.6632724279361928
529.0158788274384,0.6544272198983188
531.785326356061,0.6438006433197916
534.5872859139781,0.6313898536437277
537.3550445639485,0.6176636017928884
540.1219644057746,0.6026684930113343
542.9213669927594,0.5863990602010146
545.686600267225,0.5694433229774237
548.4509958812232,0.5518129201769202
551.2478449957853,0.5334835007279982
554.0105563494981,0.5150825067082941
556.805701690384,0.49635044664618805
559.5667303225964,0.47790167448712045
562.3269232040038,0.4596656103864582
565.0862807140293,0.44177845285187867
567.8780333537688,0.4241529783390598
570.6357112050464,0.40731186397586044
573.3925548263542,0.39112693820622996
576.1817644509756,0.37548456319750606
578.9369307080196,0.3608097152464313
581.6912638744288,0.3469488461971061
584.4779339570123,0.33377392810580736
587.2305920494691,0.32161043689113133
589.9824181885451,0.3102976458437615
592.7665521958479,0.29970688869258305
595.5167055471175,0.29007529870856347
598.2660280801974,0.2812511457037222
601.0145201715131,0.2732096227759389
603.7952814999189,0.26583978297977
606.5421038421155,0.2592876073940342
609.2880968749887,0.25343131892813153
612.0663301881068,0.24818355733103156
614.8106557483188,0.24364201227383503
617.554153129593,0.23971607063305891
620.2968227067649,0.23638531723465633
623.0716940541533,0.23360442837924583
625.8126991844802,0.2314297039725778
628.552877638358,0.2298218196304159
631.2922297897167,0.22878648925335524
634.0637452701958,0.22833807314591575
636.8014359932095,0.2285166164086564
639.5383015386324,0.2293592230109839
642.3073015987065,0.2309589246424964
645.0425079771339,0.23338220492092332
647.7768903008473,0.23680191358477862
650.5104489421938,0.24147155970443615
653.2431842732913,0.24782333587215513
656.0080062575216,0.25675998760930546
658.7390861754284,0.26946413772118954
661.4693439025905,0.28809378296839205
664.1987798102273,0.31439874607166096
666.9602641357596,0.3472588062969658
669.6880476268889,0.3781605333555191
672.4150104152941,0.39666056195638905
675.141152871307,0.3979621931706297
677.8993055782594,0.38802170997411434
680.6237986072192,0.3780859596839505
683.3474724178923,0.3749857840473176
686.0703273797008,0.37968295952527753
688.7923638618704,0.39029430248308716
691.5463630106569,0.40500172976778875
694.2667537902307,0.42210625367406074
696.9863272009134,0.4409672953220362
699.705083611032,0.46107775241431814
702.4230233886883,0.4820682831032733
705.1728783546314,0.5038972085587958
707.8891761429404,0.5257723085653275
710.6046584062024,0.5477031676257937
713.3193255116239,0.5694628595019586
716.033177826208,0.5908484538998052
718.7462157167283,0.6116875139384252
721.491111983778,0.6320845973290958
724.2025123243511,0.65146746635301
726.9130993442814,0.6700549602359749
729.6228734094693,0.6878849021245633
732.3318348855792,0.7050694044875512
735.0399841380749,0.7218013338546149
737.7799351068679,0.7385575002145837
740.4864512328204,0.7553020690480968
743.1921562345997,0.7726647346628324
745.8970504767931,0.7911156494202962
748.6011343237551,0.8111066504737354
751.3044081396256,0.8329670611532419
754.0394271625555,0.8570335157876802
756.741072259374,0.8822406759715288
759.4419084205874,0.9075870148194856
762.1419360094733,0.9308540452673288
764.8411553890837,0.9490554557082439
767.539566922238,0.959140673139284
770.2371709715626,0.9591290247045217
772.9339678994475,0.9491181390435232
775.6624349602753,0.931265552798181
778.3576090181923,0.9100869275551664
781.0519770449282,0.8901395115250674
783.7455394020071,0.8761988328030473
786.4382964507422,0.8726228076953355
789.1302485522319,0.8810583174994564
791.8213960673565,0.8924677016647935
794.5117393567816,0.8831002134787368
797.2012787809545,0.8447357630872099
799.922404211542,0.7985789322787452
802.6103273114531,0.7620182249289377
805.2974476305062,0.736336918151046
807.9837655282827,0.7189164610463015
810.6692813641639,0.707212776955227
813.3539954973021,0.6994926095977101
816.037908286642,0.6946841565927031
818.7210200909067,0.6921721494995119
821.4033312686151,0.6916575268585256
824.0848421780756,0.6930575962438286
826.7655531773598,0.6964050079703116
829.4777478409233,0.7017893715100595
832.1568504666102,0.7089043479240378
834.8351542594137,0.7172712197990254
837.5126595765614,0.7259389927827807
840.1893667750774,0.7336559006043475
842.8652762117599,0.739192531951508
845.5403882432074,0.7417638858360832
848.2147032257963,0.7413521803194887
850.8882215157028,0.7387534915309634
853.5609434688704,0.735311851335638
856.2328694410462,0.7324712038614488
858.9039997877626,0.7313531249254787
861.5743348643446,0.732516539757479
864.2438750258916,0.7359333267483981
866.9126206273068,0.7411128267978548
869.5805720232747,0.7472782607362842
872.2477295682729,0.7535259402024076
874.9140936165568,0.7589424674931338
877.5796645221853,0.7626851928499142
880.2444426389957,0.7640402813436757
882.9084283206321,0.7624688351826588
885.5716219205024,0.7576443729865089
888.2340237918252,0.7494799018629853
890.8956342876045,0.7381408895648418
893.5564537606224,0.7240407253994531
896.2164825634645,0.707816533268339
898.8757210485091,0.6902846451809378
901.566194253428,0.6721622591876704
904.2238436478765,0.6548545680681215
906.88070378462,0.63904570220111
909.5047788508018,0.6256151277897096
912.1600710251078,0.6146943922742488
914.8145749914547,0.6065746788952824
917.4682911007549,0.6009658072098583
920.1212197037094,0.5971760235323871
922.7733611508156,0.5941764130376296
925.4247157923564,0.5907286204511886
928.0752839784072,0.5855609651011855
930.725066058847,0.5775633216689975
933.3740623833291,0.5659622481643102
936.0222733013143,0.5504390048914025
938.669699162052,0.5311652690834707
941.3163403145809,0.5087512995417499
943.9621971077358,0.48412269519846496
946.607269890148,0.45835777680393813
949.2515590102339,0.4325233047211974
951.8950648162136,0.4075410214463097
954.5377876560888,0.3841045330259646
957.1797278776648,0.3626505939464339
959.8208858285398,0.34337598411601733
962.4612618561077,0.3262838997972011
965.1008563075484,0.3112425710908425
967.7396695298376,0.2980421057915142
970.3777018697583,0.2864409344912127
973.0149536738754,0.2761985282866399
975.65142528855,0.26709496511279446
978.2871170599428,0.2589400485559587
980.8902880408277,0.2516598677507198
983.5244305486303,0.24494909016376656
986.1577942462391,0.23879732388058791
988.7903794789963,0.23312195492829227
991.4221865920408,0.22785715624333933
994.0532159303111,0.2229502562771925
996.6834678385349,0.21835880303090835
999.3129426612431,0.21404826675027894
1001.9416407427561,0.2099902754935367
1004.5695624271975,0.2061612720480691
1007.1967080584836,0.20254149392826387
1009.8230779803271,0.19911419706738476
1012.4170434801454,0.19590319835889228
1015.041872349022,0.19281794235302163
1017.665926534246,0.18988787813211724
1020.2892063787294,0.18710358779689024
1022.9117122251773,0.1844567735389404
1025.5334444160871,0.18194008435853065
1028.15440329376,0.17954697795467298
1030.7745892002931,0.1772716101062187
1033.3940024775802,0.175108745744923
1035.9810981708106,0.17307782252468093
1038.598976513018,0.17112512752387427
1041.2160832463414,0.1692722793435084
1043.832418711885,0.16751588503841314
1046.447983250535,0.16585291856353226
1049.0627772029802,0.16428069755164187
1051.676800909714,0.16279686545657612
1054.290054711022,0.16139937821294095
1056.8710678120515,0.16010181504096102
1059.48279208834,0.1588710962399421
1062.093747474777,0.157722397099755
1064.7039343108554,0.1566548537029577
1067.313352935871,0.15566789341875184
1069.9220036889128,0.15476123608327874
1072.4984711957586,0.1539443728332038
1075.105596462614,0.15319768584265964
1077.7119548694973,0.1525322260914012
1080.317546754708,0.1519488976857997
1082.9223724563308,0.15144890328710636
1085.5264323122756,0.15103374169870948
1088.1297266602414,0.1507052029353095
1090.700904617097,0.15046771300711442
1093.3026781742628,0.15031779912433277
1095.90368723129,0.1502614934479554
1098.5039321250988,0.15030162848255135
1101.1034131923952,0.15044124614864707
1103.6708254619662,0.15068002250261775
1106.2687890782108,0.15102710772543076
1108.8659898728438,0.15148367221325618
1111.4624281817887,0.15205322153179943
1114.0581043407765,0.152739254068735
1116.6217591897112,0.15353476256381898
1119.2159212276165,0.15446241201489083
1121.8093221175222,0.15551632004410262
1124.4019621943662,0.15669929459406523
1126.9938417929043,0.15801378289364618
1129.5537474636767,0.1594435440057776
1132.1441162613737,0.1610249226052527
1134.7337255797866,0.16274218004460506
1137.322575752878,0.1645955280556964
1139.9106671144218,0.16658442812782606
1142.466831825419,0.1686811554765764
1145.0534156966605,0.17093464978328152
1147.6392417524658,0.17331700966764513
1150.2243103258224,0.1758241443867803
1152.7774899721844,0.17841864993831913
1155.3610536951164,0.18115782753383924
1157.9438609293902,0.18400374457315796
1160.5259120072114,0.18694845945252966
1163.1072072606003,0.18998313967972882
1165.6566606759006,0.19306016138711354
1168.2364543720396,0.1962442880841532
1170.8154932346333,0.19948743911603092
1173.3937775949307,0.2027780815804194
1175.940257690534,0.20606406854347742
1178.5170431196166,0.20941353743416516
1181.0930750349762,0.2127744160793404
1183.6683537670833,0.2161346269987257
1186.2118657414467,0.219442169772098
1188.7856481622657,0.2227665157665183
1191.3586783861065,0.22605657031852186
1193.9309567426717,0.22930250751126288
1196.471505782134,0.23245738527171084
1199.0422904412299,0.23559057099859834
1201.6123242170252,0.23865690535388223
1204.1506566845674,0.2416158464701305
1206.7191987172919,0.2445362398585798
1209.2869908489847,0.24737983857652135
1211.8540334080099,0.25014663140398624
1214.389411983815,0.2528063623091144
1216.9549654029506,0.2554273619659115
1219.5197702293917,0.2579819841948974
1222.0529389950316,0.26044743942478366
1224.61625662804,0.26289236837622104
1227.1788266466283,0.26529651124282166
1229.7406493778217,0.2676714739275255
1232.2708732581305,0.27000181370924276
1234.8312113884967,0.27235833527499026
1237.3908032074723,0.27472767331180725
1239.9188240118929,0.27709667498975143
1242.4769331685857,0.2795396005406372
1245.0342969881858,0.28204489945736994
1247.560117592806,0.2845983224961521
1250.116000685306,0.2872795369076663
1252.6711394133126,0.2900754299595566
1255.194762689218,0.29296716109450943
1257.7484226219312,0.29604199562679867
1260.3013391610693,0.29928186995910433
1262.822767974354,0.3026601374950936
1265.3742076466478,0.3062739563190371
1267.924904894593,0.31009725908997304
1270.4441421063602,0.3140929429510726
1272.993364412563,0.3183702866627483
1275.5418452619597,0.3228927326374917
1278.0588937283464,0.327610782443226
1280.6059015577484,0.33264780226364377
1283.1521688962057,0.3379549185578914
1285.6670314683906,0.3434690206961304
1288.2118277052796,0.3493290644411464
1290.755884415401,0.3554726692289238
1293.2685639396113,0.3618225304517823
1295.811151463251,0.3685340346407941
1298.3530004226377,0.37553063419116584
1300.8634997401532,0.38272075125669763
1303.403881424827,0.3902762097077866
1305.9129317732186,0.39801009915413027
1308.4518474532706,0.40610470990734665
1310.9900261682633,0.4144595065812349
1313.4969010306886,0.4229599934964105
1316.0336156473168,0.4318027153514101
1318.5695942569437,0.4408730322392864
1321.074296461582,0.4500437883362087
1323.6088128757874,0.4595230689105884
1326.112071126503,0.4690654659577947
1328.6451266095319,0.4788847469847948
1331.1774476773753,0.48884468655907715
1333.6785379692556,0.498800596164871
1336.209400003383,0.5089711608201991
1338.7090494631484,0.519085908416082
1341.2384537241596,0.5293641238609764
1343.76712515721,0.539653595302954
1346.2646113435585,0.5498002071299088
1348.7918268954818,0.560019909290426
1351.2878753625337,0.570034420299627
1353.8136362903097,0.5800546685445134
1356.338665972784,0.5899237709299181
1358.832555838333,0.5994918919470277
1361.3561327831994,0.6089584442946069
1363.8485880333137,0.6180623450316409
1366.3707134939323,0.6269929258537013
1368.8921092873425,0.6356056840126527
1371.3824105944368,0.6437728558442245
1373.9023567847216,0.6516653728425781
1376.3912265713043,0.6590672979005566
1378.9097244082113,0.6661353268479747
1381.3971639082774,0.6726781778038008
1383.914214640121,0.6788367868434034
1386.4002250862322,0.6844470978983611
1388.9158299598967,0.6896327767551567
1391.4307079939972,0.6943118699773346
1393.9145728441363,0.6984292914063256
1396.4280068914595,0.7020799286283207
1398.9104457665926,0.7051724892618143
1401.422437070447,0.7077809224194177
1403.9034511981918,0.7098425140949914
1406.4140010004412,0.7114090226214753
1408.893591607004,0.7124451880570223
1411.4027011481012,0.7129795996558411
1413.8808694582804,0.7130031925885938
1416.388539977259,0.7125207839929414
1418.8954870924463,0.7115335126223884
1421.3715199489052,0.7100669109595668
1423.877029901585,0.7080899210961207
1426.3516435212223,0.705654947535559
1428.8557175468777,0.702707651422047
1431.3289131495767,0.6993243441996088
1433.8315524822574,0.6954283701945775
1436.3033312865118,0.6911200367678668
1438.8045371588632,0.6863016639884211
1441.2749003817698,0.6810976923145168
1443.7746740250223,0.6753909288649852
1446.2436228822844,0.6693298748633013
1448.7419655262602,0.6627794449129171
1451.2095012321843,0.655911676142229
1453.7064141053015,0.6485752305543017
1456.1725378728079,0.6409645253271402
1458.6680222020732,0.6329135733451416
1461.1327352426997,0.6246373042783232
1463.6267922537227,0.6159566311595436
1466.090095777603,0.6071044445034163
1468.582726694589,0.5978900673474551
1471.044621910496,0.5885612391033905
1473.5358279562424,0.578917197511175
1475.996316071556,0.5692170493319693
1478.4860984674815,0.5592514839816273
1480.9451806882025,0.5492873446795891
1483.4335406543069,0.5391083678941483
1485.8912181850574,0.5289855668726231
1488.3781569399653,0.5186973846728867
1490.8344309839958,0.5085156824042686
1493.2900079848114,0.49833929630848645
1495.7748215041174,0.4880660483273324
1498.2289968168734,0.4779636974869364
1500.7123921617567,0.4678049340228075
1503.1651669862695,0.4578518567424833
1505.647145370498,0.44787777849147886
1508.0985209052233,0.43813735424169953
1510.579083541168,0.4284060574419628
1513.02906098319,0.4189297660270009
1515.5082090818432,0.4094875025791929
1517.9567896268818,0.40031543802151165
1520.4046764008053,0.39130619136961226
1522.8817092402714,0.38235912946739387
1525.3282009046197,0.3736948901140122
1527.803822224585,0.3651062131478521
1530.2489199716838,0.3568030840464307
1532.7231309783128,0.34858516357239383
1535.16683599912,0.3406518054047459
1537.6098493197496,0.3329034705016705
1540.0819513813403,0.3252490046534479
1542.5235737559778,0.3178722044312329
1544.994268510025,0.3105919562323148
1547.4345011262485,0.3035820531042567
1549.8740435159852,0.2967516491433717
1552.3426338181598,0.29001832644946235
1554.7807882247253,0.28354164567382945
1557.2479742165997,0.2771606473890037
1559.6847418242032,0.27102593283736315
1562.1505247037494,0.2649844863788071
1564.5859066952507,0.25917840854555235
1567.0206005171167,0.2535303593450214
1569.4842852159818,0.24797064565765572
1571.9175951899415,0.24262950460487093
1574.3798797618183,0.23737283298975978
1576.8118070673772,0.23232350857410597
1579.2430476669651,0.2274135569728559
