Raman Shift (cm-1),Processed Intensity
159.26151312198635,0.0
162.17892251266312,0.054943583471220504
165.06070388440276,0.10473000300175235
167.97629817665074,0.14964118244075586
170.89098012548493,0.18992616919786004
173.77006778237046,0.22582244450066574
176.68293717714914,0.2576295318363658
179.59489550712533,0.2855878610405027
182.50594319967058,0.3099566758913972
185.38144153980102,0.3309629505392927
188.29068006676243,0.34892813964660363
191.19900923170644,0.3640819439232174
194.07182265961455,0.37664401257592267
196.97834519226308,0.3869511128746613
199.8839596359394,0.39522546142439774
202.75409191031576,0.40167983178709465
205.65790225025557,0.4070023127445911
208.5608057718964,0.412658252527887
211.42826064439942,0.41824737654109845
214.32936258615155,0.4196043607711536
217.22955897789507,0.42166105771387774
220.09434019320543,0.4226586400199994
222.9927375242005,0.42562240538892165
225.89023057112718,0.43191543436044827
228.75234186693342,0.43597597104036195
231.64803836756255,0.43858904009541533
234.54283184768065,0.43903021140549253
237.4022769547155,0.4392669707335844
240.2952763983085,0.4399119977576695
243.18737408261222,0.44283674140559853
246.04415672466348,0.44373036220351364
248.93446287752522,0.44610011833868746
251.82386852998388,0.444356294945825
254.67799242389083,0.4432337059703222
257.565609045334,0.44330623346890835
260.41796602711474,0.4417091871647881
263.3037952786035,0.44009217692357866
266.18872612093764,0.43385619221051597
269.0384305290536,0.4291344298516753
271.9215764941182,0.4213419669409396
274.8038253026716,0.41535846929070436
277.65088083558294,0.40560976998348386
280.5313472549242,0.3949446248451631
283.37664243438485,0.38356034653675053
286.2553281173605,0.37118854359146863
289.13311872473423,0.3539329741752784
291.97577117291803,0.34472229311013136
294.85178352428557,0.3295224393770448
297.6926797004962,0.31348133018856605
300.5669154435891,0.30209120303794135
303.44025818556474,0.28464634758006
306.2785177554506,0.27048785664119407
309.150086361853,0.2570496785275495
311.98659372863403,0.244829197366968
314.85638984211255,0.230910982114121
317.69114662786524,0.2198635849646589
320.55917188903913,0.20515992912525385
323.42630704161274,0.19533103195775228
326.25843576130865,0.1834999211619056
329.1238025236089,0.17983939776000396
331.9541847135806,0.16997572532456523
334.8177847211591,0.16146367839761913
337.6464219965019,0.15113610247214726
340.5082568828984,0.14631966773108795
343.3351508567066,0.13745432885826095
346.1952222534492,0.13025127330750236
349.0203745368344,0.12377186096361588
351.8786840734356,0.11906600900946726
354.7361080202609,0.11775191868603735
357.55864557949826,0.11477611839426995
360.4143101115624,0.11008385192657023
363.23511000427607,0.10493802543620347
366.08901674608205,0.10632770353177413
368.90808057645336,0.10364541363138735
371.7602311504961,0.09932123571088187
374.57756052071636,0.09771968351498724
377.42795654749716,0.09721923962929666
380.2435530577968,0.0980970909059666
383.0921961558306,0.10039789148251577
385.90606140446107,0.10499742836416653
388.7529531902692,0.1060803058562563
391.56508877352826,0.11014102171712817
394.41023086164205,0.1096597299525264
397.2206383738594,0.1112575465581129
400.0640323768239,0.11105565769575061
402.8727134103756,0.1153039950569526
405.71436093876036,0.11541328795265675
408.5213170840616,0.11989819570408497
411.36121974646085,0.12155996501310527
414.16645259197685,0.12867086116224571
417.00461199500205,0.12933474373334483
419.8081231272481,0.13434353200081944
422.6107791472823,0.13828352743263717
425.446331879084,0.14638952729856322
428.2472685572284,0.1496405223928952
431.0810820327788,0.15518629721775806
433.88030095069917,0.15952888592461392
436.71237676973396,0.16524003499862547
439.5098795071426,0.16765501441733807
442.3402192674366,0.1677440381876515
445.1360074021177,0.1672366568378947
447.930943955329,0.17337466376169944
450.75868780728706,0.18030431756365844
453.5519121161087,0.1832346290339077
456.3779238904244,0.19043093147377896
459.1694375278166,0.1985631106702791
461.99371881542174,0.2038086169753077
464.7835233524238,0.21095066121147513
467.5724790401364,0.21902800202301034
470.39417274803054,0.22822384149812036
473.18142168360646,0.23745807825318688
476.00138886887726,0.24620352249587296
478.7869326185464,0.2520240868728638
481.60517486533354,0.26024957614925437
484.3890149934232,0.2715670058498066
487.17200899273666,0.28265981272132096
489.9876719528438,0.293630451932231
492.76896466880135,0.3017612571989169
495.5829066375736,0.3099272655125769
498.3624996297294,0.31717434717999426
501.14124842855017,0.32143609233818504
503.9526170105346,0.3288435696578095
506.7296684166504,0.3334079324902252
509.505876786945,0.33866058682400063
512.3146755106209,0.34170220610077373
515.0891888150436,0.34370401864989447
517.8962728359329,0.34332603025582104
520.6690926264382,0.3444166161273922
523.4410713071484,0.3407242023603887
526.2455913408958,0.33580548607617966
529.0158788274384,0.33449212608893336
531.785326356061,0.3319140913529683
534.5872859139781,0.32570496268110527
537.3550445639485,0.3185466697715895
540.1219644057746,0.3102276890055468
542.9213669927594,0.29947586810595916
545.686600267225,0.28572338421443044
548.4509958812232,0.2744112994063282
551.2478449957853,0.2650021239629632
554.0105563494981,0.2556076726984542
556.805701690384,0.24500572066429718
559.5667303225964,0.23166117170701542
562.3269232040038,0.21763119810821221
565.0862807140293,0.2048098877218966
567.8780333537688,0.19629090736986407
570.6357112050464,0.1817623123738813
573.3925548263542,0.1705209835886755
576.1817644509756,0.15532845439975018
578.9369307080196,0.14201428494080182
581.6912638744288,0.12846635915073443
584.4779339570123,0.11698505346782172
587.2305920494691,0.10790146027682009
589.9824181885451,0.10172971705871196
592.7665521958479,0.09472401915891289
595.5167055471175,0.08687742160436791
598.2660280801974,0.081689073343656
601.0145201715131,0.0779921111714876
603.7952814999189,0.07149840719274075
606.5421038421155,0.06628875458193004
609.2880968749887,0.06273893031096017
612.0663301881068,0.06370894943523549
614.8106557483188,0.06142468989585026
617.554153129593,0.06121988278715226
620.2968227067649,0.06075665092648481
623.0716940541533,0.061981023822305636
625.8126991844802,0.06435907991543548
628.552877638358,0.06776405839096802
631.2922297897167,0.07468201041251599
634.0637452701958,0.08226424389877218
636.8014359932095,0.08988513326476062
639.5383015386324,0.1001433112925314
642.3073015987065,0.11091667960584337
645.0425079771339,0.12250830318127165
647.7768903008473,0.1341279751910636
650.5104489421938,0.15081724525606083
653.2431842732913,0.16258286895529717
656.0080062575216,0.1759732263878094
658.7390861754284,0.1886511090880723
661.4693439025905,0.19777679406575457
664.1987798102273,0.21090159858519628
666.9602641357596,0.2214799455171837
669.6880476268889,0.23301035736124193
672.4150104152941,0.2458161036212747
675.141152871307,0.25548808968689735
677.8993055782594,0.26441203202643215
680.6237986072192,0.27725368364614267
683.3474724178923,0.2869217684432074
686.0703273797008,0.2932387550074401
688.7923638618704,0.30258779287863896
691.5463630106569,0.3119643976291908
694.2667537902307,0.32379309176438237
696.9863272009134,0.33224690734084145
699.705083611032,0.34433332725471283
702.4230233886883,0.3574193674222079
705.1728783546314,0.3694435808701784
707.8891761429404,0.383984675413289
710.6046584062024,0.40019869631522226
713.3193255116239,0.4167360249468782
716.033177826208,0.4364796396780187
718.7462157167283,0.45781824177720787
721.491111983778,0.4822528439561296
724.2025123243511,0.5064931136279022
726.9130993442814,0.5343474633044247
729.6228734094693,0.5617510527059095
732.3318348855792,0.5889127794509812
735.0399841380749,0.6171696913642819
737.7799351068679,0.6444273612246302
740.4864512328204,0.6752194800359882
743.1921562345997,0.7083221198291626
745.8970504767931,0.7479146763087374
748.6011343237551,0.7874471531199929
751.3044081396256,0.8282067819860999
754.0394271625555,0.8693065688123695
756.741072259374,0.9064703942621375
759.4419084205874,0.9392656429602202
762.1419360094733,0.9646805495391618
764.8411553890837,0.9823215644203787
767.539566922238,0.9946189430703385
770.2371709715626,0.9997013923864314
772.9339678994475,1.0
775.6624349602753,0.9901617047681313
778.3576090181923,0.9735608918432453
781.0519770449282,0.9520687918396116
783.7455394020071,0.9227771510018068
786.4382964507422,0.8850426143998578
789.1302485522319,0.8471187593710869
791.8213960673565,0.8049562643810175
794.5117393567816,0.7616019221668722
797.2012787809545,0.7166089092220261
799.922404211542,0.672083741661693
802.6103273114531,0.6276074758215486
805.2974476305062,0.5836980609122083
807.9837655282827,0.5423113488055085
810.6692813641639,0.5009484643209621
813.3539954973021,0.46778046353046837
816.037908286642,0.4426763312604073
818.7210200909067,0.4217070862808784
821.4033312686151,0.40990943407774233
824.0848421780756,0.4049196681590905
826.7655531773598,0.4070207436970909
829.4777478409233,0.40936601275309525
832.1568504666102,0.41514843874945245
834.8351542594137,0.42289411663594845
837.5126595765614,0.4329648069055867
840.1893667750774,0.44008744068300776
842.8652762117599,0.444503644548597
845.5403882432074,0.45145075718558386
848.2147032257963,0.4565994428439304
850.8882215157028,0.46102702049020394
853.5609434688704,0.4670866203331111
856.2328694410462,0.4684571790663041
858.9039997877626,0.47076377479718434
861.5743348643446,0.47097873182223843
864.2438750258916,0.47357831538328954
866.9126206273068,0.474077251698943
869.5805720232747,0.4765667093504882
872.2477295682729,0.4794699863506535
874.9140936165568,0.48063391344948186
877.5796645221853,0.4817350802548936
880.2444426389957,0.483326099611416
882.9084283206321,0.48303259538319687
885.5716219205024,0.4836076168228835
888.2340237918252,0.4857597324557276
890.8956342876045,0.48995081989284356
893.5564537606224,0.4915195953096664
896.2164825634645,0.49423035952541516
898.8757210485091,0.4988556013472717
901.566194253428,0.5027656649061646
904.2238436478765,0.5078120988048964
906.88070378462,0.5146428519036481
909.5047788508018,0.5224870360421873
912.1600710251078,0.5282547189754959
914.8145749914547,0.5342974355864184
917.4682911007549,0.5411484096117605
920.1212197037094,0.5439224219337866
922.7733611508156,0.5470130491579441
925.4247157923564,0.549483079635364
928.0752839784072,0.5498039531882515
930.725066058847,0.5461334875702867
933.3740623833291,0.5410404849304381
936.0222733013143,0.5301206352891318
938.669699162052,0.5192679081889445
941.3163403145809,0.5046785202909045
943.9621971077358,0.48792070434742435
946.607269890148,0.4686833515510962
949.2515590102339,0.4456730070508419
951.8950648162136,0.4214941470276027
954.5377876560888,0.39346386561221747
957.1797278776648,0.36889246337558407
959.8208858285398,0.3410195381558781
962.4612618561077,0.3128008047382957
965.1008563075484,0.2877133753156792
967.7396695298376,0.2605886301327723
970.3777018697583,0.2348222941294088
973.0149536738754,0.20901265596679997
975.65142528855,0.18966336985242307
978.2871170599428,0.1711495377635126
980.8902880408277,0.15378481608086414
983.5244305486303,0.13924028944966502
986.1577942462391,0.12747942327840883
988.7903794789963,0.11832059750437766
991.4221865920408,0.11016602378178174
994.0532159303111,0.10727283619396781
996.6834678385349,0.10577222999003945
999.3129426612431,0.10454895185119753
1001.9416407427561,0.10440000377353977
1004.5695624271975,0.10403830569986601
1007.1967080584836,0.10361175728418244
1009.8230779803271,0.10190414773307734
1012.4170434801454,0.09961220603577307
1015.041872349022,0.09882082701614094
1017.665926534246,0.09829521087073949
1020.2892063787294,0.1002225984371624
1022.9117122251773,0.10084148571431154
1025.5334444160871,0.10376288465935725
1028.15440329376,0.10281038544411984
1030.7745892002931,0.10585968692320481
1033.3940024775802,0.10732902910252845
1035.9810981708106,0.11344449066530625
1038.598976513018,0.1135540061679319
1041.2160832463414,0.11795652168862691
1043.832418711885,0.12094044665042702
1046.447983250535,0.12167768326223062
1049.0627772029802,0.1252221583291745
1051.676800909714,0.12568919442846405
1054.290054711022,0.12578204512315488
1056.8710678120515,0.12567883223871662
1059.48279208834,0.12476939906102702
1062.093747474777,0.12410091184198532
1064.7039343108554,0.12461091074197429
1067.313352935871,0.12544299869474812
1069.9220036889128,0.12358566010182405
1072.4984711957586,0.12205735716098509
1075.105596462614,0.1202398068963702
1077.7119548694973,0.11613972389251237
1080.317546754708,0.11383760960713438
1082.9223724563308,0.11242077030128549
1085.5264323122756,0.10912608898580982
1088.1297266602414,0.10556069936191302
1090.700904617097,0.10148758137105024
1093.3026781742628,0.10332203785179046
1095.90368723129,0.10273988510296796
1098.5039321250988,0.10454249171972295
1101.1034131923952,0.10420428022006974
1103.6708254619662,0.10407168565630288
1106.2687890782108,0.10624265545213388
1108.8659898728438,0.10810749400593714
1111.4624281817887,0.10903209268891621
1114.0581043407765,0.11155286095074121
1116.6217591897112,0.11234341274965584
1119.2159212276165,0.11463748383126304
1121.8093221175222,0.11574775995420766
1124.4019621943662,0.1178381068217519
1126.9938417929043,0.12076521080754402
1129.5537474636767,0.11979662373133589
1132.1441162613737,0.1211967959459592
1134.7337255797866,0.12009315120549818
1137.322575752878,0.12064372543468174
1139.9106671144218,0.12199376765175741
1142.466831825419,0.12235693391126297
1145.0534156966605,0.12108204990867794
1147.6392417524658,0.11833019550953167
1150.2243103258224,0.1192956594280664
1152.7774899721844,0.1188241475271547
1155.3610536951164,0.11687147871518945
1157.9438609293902,0.11925211960633932
1160.5259120072114,0.1191257638349687
1163.1072072606003,0.11735562403668291
1165.6566606759006,0.11773263661224431
1168.2364543720396,0.11699226454727862
1170.8154932346333,0.11792255228273917
1173.3937775949307,0.1190733783317731
1175.940257690534,0.12043902345376693
1178.5170431196166,0.12064823770711845
1181.0930750349762,0.1211153667543489
1183.6683537670833,0.12355043673098498
1186.2118657414467,0.12308965661717115
1188.7856481622657,0.12412553121370952
1191.3586783861065,0.12642921890697392
1193.9309567426717,0.12964927040009375
1196.471505782134,0.1289530236528581
1199.0422904412299,0.12924387413139585
1201.6123242170252,0.12831790520510616
1204.1506566845674,0.1277960432129402
1206.7191987172919,0.12710792769165788
1209.2869908489847,0.12783434108573455
1211.8540334080099,0.12852153784973078
1214.389411983815,0.13203714125120053
1216.9549654029506,0.13144240771771332
1219.5197702293917,0.13097156026017848
1222.0529389950316,0.13191045272431917
1224.61625662804,0.13280799769320845
1227.1788266466283,0.13276867199483824
1229.7406493778217,0.13262049410253884
1232.2708732581305,0.1349923433855196
1234.8312113884967,0.1377597339869325
1237.3908032074723,0.137838921434685
1239.9188240118929,0.14071011091260632
1242.4769331685857,0.14343205639995754
1245.0342969881858,0.14415495922538213
1247.560117592806,0.14653871043565878
1250.116000685306,0.14998187080404166
1252.6711394133126,0.151695573478827
1255.194762689218,0.15334519953688822
1257.7484226219312,0.1554266449640584
1260.3013391610693,0.15560945179204505
1262.822767974354,0.156218604119151
1265.3742076466478,0.15747475893488627
1267.924904894593,0.15829124844737189
1270.4441421063602,0.15749773154292013
1272.993364412563,0.15626748877182747
1275.5418452619597,0.1563665928087555
1278.0588937283464,0.15580935899489642
1280.6059015577484,0.1569138437368169
1283.1521688962057,0.1588701277867823
1285.6670314683906,0.1603763791526644
1288.2118277052796,0.1622111633461631
1290.755884415401,0.16262467014104862
1293.2685639396113,0.1633263886364123
1295.811151463251,0.1660907904856976
1298.3530004226377,0.16951499422441893
1300.8634997401532,0.1718185776234596
1303.403881424827,0.1731962882804786
1305.9129317732186,0.1777523374721438
1308.4518474532706,0.1827677335867033
1310.9900261682633,0.18620354216890855
1313.4969010306886,0.18809753813742386
1316.0336156473168,0.19193321021122375
1318.5695942569437,0.1962470070108305
1321.074296461582,0.19955243852166463
1323.6088128757874,0.20323081215694988
1326.112071126503,0.20660319838714603
1328.6451266095319,0.20980385759521045
1331.1774476773753,0.21480740660067282
1333.6785379692556,0.217640359210788
1336.209400003383,0.22097917024073718
1338.7090494631484,0.22481175261877986
1341.2384537241596,0.2297495521110088
1343.76712515721,0.23380972665366903
1346.2646113435585,0.23410628621427082
1348.7918268954818,0.2356628974058167
1351.2878753625337,0.23523555571172022
1353.8136362903097,0.23813754310646765
1356.338665972784,0.23985817416746705
1358.832555838333,0.24229169847360899
1361.3561327831994,0.24430086008293475
1363.8485880333137,0.24536919389719328
1366.3707134939323,0.24610896758322365
1368.8921092873425,0.24894480274437783
1371.3824105944368,0.25010459419323483
1373.9023567847216,0.2518184863440894
1376.3912265713043,0.24974823213159347
1378.9097244082113,0.2494047885482384
1381.3971639082774,0.24836713358560103
1383.914214640121,0.2472378604806455
1386.4002250862322,0.2474370334751141
1388.9158299598967,0.2428052074667567
1391.4307079939972,0.24325435451374436
1393.9145728441363,0.24308727515306258
1396.4280068914595,0.24071474009619015
1398.9104457665926,0.24181642224481079
1401.422437070447,0.24300777448174424
1403.9034511981918,0.24482425316754217
1406.4140010004412,0.24575323322377304
1408.893591607004,0.24480341969894323
1411.4027011481012,0.2456010162922286
1413.8808694582804,0.24607828892213646
1416.388539977259,0.24579562736411248
1418.8954870924463,0.24497902110672426
1421.3715199489052,0.24350796219735105
1423.877029901585,0.24563678489650265
1426.3516435212223,0.2473429159499302
1428.8557175468777,0.25117413239397646
1431.3289131495767,0.25148315842815444
1433.8315524822574,0.25333229334054785
1436.3033312865118,0.25561711931946496
1438.8045371588632,0.2575550114500303
1441.2749003817698,0.25801666814597474
1443.7746740250223,0.2625935006784825
1446.2436228822844,0.26380186082705553
1448.7419655262602,0.26369238019119473
1451.2095012321843,0.2611167382086739
1453.7064141053015,0.26258989692395635
1456.1725378728079,0.2613101022578439
1458.6680222020732,0.26051857639240494
1461.1327352426997,0.2584648468489406
1463.6267922537227,0.25370422435303036
1466.090095777603,0.2514031503160083
1468.582726694589,0.2481214448317419
1471.044621910496,0.24453875912426098
1473.5358279562424,0.2427500328635668
1475.996316071556,0.24121342410883773
1478.4860984674815,0.23801125523839314
1480.9451806882025,0.2335639183823365
1483.4335406543069,0.2306795776578302
1485.8912181850574,0.22790742056264512
1488.3781569399653,0.2245056955734086
1490.8344309839958,0.21897754569080008
1493.2900079848114,0.21551733444487106
1495.7748215041174,0.21023813687113455
1498.2289968168734,0.20602479146494598
1500.7123921617567,0.20309372648324614
1503.1651669862695,0.20129138222248907
1505.647145370498,0.19879191417842068
1508.0985209052233,0.1966520961595581
1510.579083541168,0.19542213251534812
1513.02906098319,0.19311469068394715
1515.5082090818432,0.19059852512393013
1517.9567896268818,0.19151531517983936
1520.4046764008053,0.18791972980730112
1522.8817092402714,0.18642969291726794
1525.3282009046197,0.18372916348312257
1527.803822224585,0.18429328078416138
1530.2489199716838,0.1840666337256307
1532.7231309783128,0.18346362644032563
1535.16683599912,0.18326890170423216
1537.6098493197496,0.18289396742306654
1540.0819513813403,0.18443561425467145
1542.5235737559778,0.18934623358358998
1544.994268510025,0.19301118892898012
1547.4345011262485,0.1967535902675176
1549.8740435159852,0.20279937123941863
1552.3426338181598,0.20414540919297897
1554.7807882247253,0.2084100311290459
1557.2479742165997,0.21300215160980526
1559.6847418242032,0.21915232482974692
