Raman Shift (cm-1),Processed Intensity
159.26151312198635,0.0
162.17892251266312,0.02080195562901983
165.06070388440276,0.03974117078433569
167.97629817665074,0.05697546843908697
170.89098012548493,0.07256449315795556
173.77006778237046,0.08656259829322327
176.68293717714914,0.09913568720799015
179.59489550712533,0.1103394703838734
182.50594319967058,0.12026599348959842
185.38144153980102,0.12896488598710437
188.29068006676243,0.1366120095951076
191.19900923170644,0.14325823315302838
194.07182265961455,0.1489499355542263
196.97834519226308,0.15386984805629267
199.8839596359394,0.1580655047795058
202.75409191031576,0.16158027033376776
205.65790225025557,0.1671940126318077
208.5608057718964,0.17065763069566361
211.42826064439942,0.17183058778026475
214.32936258615155,0.17430464352686215
217.22955897789507,0.1765109808869056
220.09434019320543,0.17933955649867156
222.9927375242005,0.18024356608372274
225.89023057112718,0.1812750741606867
228.75234186693342,0.18213955019391076
231.64803836756255,0.18512441102335295
234.54283184768065,0.1859148090934269
237.4022769547155,0.18691949772613692
240.2952763983085,0.1896694582150324
243.18737408261222,0.1915165054670093
246.04415672466348,0.19317582445572906
248.93446287752522,0.19467088808364272
251.82386852998388,0.19716557444293845
254.67799242389083,0.1996570378650593
257.565609045334,0.19962727437006803
260.41796602711474,0.19567091948439874
263.3037952786035,0.19398017775665496
266.18872612093764,0.19373165103964277
269.0384305290536,0.19094426786623178
271.9215764941182,0.18551215177262367
274.8038253026716,0.1829328120275526
277.65088083558294,0.17782161918838804
280.5313472549242,0.17178544476663227
283.37664243438485,0.16647324467588556
286.2553281173605,0.16096915831640138
289.13311872473423,0.15555960618669454
291.97577117291803,0.15228564011851645
294.85178352428557,0.14761587130875917
297.6926797004962,0.14035651565233206
300.5669154435891,0.13573293111054974
303.44025818556474,0.13138220569794015
306.2785177554506,0.12393142691568788
309.150086361853,0.11582380587396525
311.98659372863403,0.1121430063118413
314.85638984211255,0.10472832152023308
317.69114662786524,0.09970417068509575
320.55917188903913,0.0939609355238907
323.42630704161274,0.08682748402098295
326.25843576130865,0.08342530740899347
329.1238025236089,0.07891735273534507
331.9541847135806,0.07340824423131026
334.8177847211591,0.06992381555418939
337.6464219965019,0.06562710723112804
340.5082568828984,0.059175428991308954
343.3351508567066,0.05279924150967563
346.1952222534492,0.049598924068534396
349.0203745368344,0.04561794993848268
351.8786840734356,0.04304829139766033
354.7361080202609,0.04099929921041078
357.55864557949826,0.04004063124514448
360.4143101115624,0.04136835788475389
363.23511000427607,0.04009995108980132
366.08901674608205,0.038659675995309686
368.90808057645336,0.03935403363920474
371.7602311504961,0.03907795349416051
374.57756052071636,0.040503619452438876
377.42795654749716,0.043374477515012375
380.2435530577968,0.04416907883161079
383.0921961558306,0.04439549819633042
385.90606140446107,0.04560372058010429
388.7529531902692,0.04599239540804771
391.56508877352826,0.04457629295486243
394.41023086164205,0.043929745060234095
397.2206383738594,0.04548001243026851
400.0640323768239,0.042901568254456894
402.8727134103756,0.043847959040120586
405.71436093876036,0.04099435966491468
408.5213170840616,0.03898842998297642
411.36121974646085,0.04015196925379634
414.16645259197685,0.04175122326784071
417.00461199500205,0.04249068079098906
419.8081231272481,0.04615170568167719
422.6107791472823,0.048300904712259916
425.446331879084,0.05062455306086546
428.2472685572284,0.05349424683141611
431.0810820327788,0.059032572680985634
433.88030095069917,0.06008240636508604
436.71237676973396,0.06532706954459186
439.5098795071426,0.06862398067278527
442.3402192674366,0.07220610051934116
445.1360074021177,0.07371771551967427
447.930943955329,0.07446162515844804
450.75868780728706,0.07671386946800447
453.5519121161087,0.0798471778253103
456.3779238904244,0.08235892002683276
459.1694375278166,0.08232302788782081
461.99371881542174,0.08337597175030266
464.7835233524238,0.08292776775635007
467.5724790401364,0.0831672105069155
470.39417274803054,0.08458763273944757
473.18142168360646,0.08582205189210375
476.00138886887726,0.08749937146185004
478.7869326185464,0.0909920108611954
481.60517486533354,0.09526013105645693
484.3890149934232,0.09878302914710141
487.17200899273666,0.10288853820318443
489.9876719528438,0.10525714858939625
492.76896466880135,0.11162081901176468
495.5829066375736,0.11829864089290061
498.3624996297294,0.1258056538547246
501.14124842855017,0.13076351331394656
503.9526170105346,0.13713232883996213
506.7296684166504,0.14229540003928856
509.505876786945,0.14843983409467162
512.3146755106209,0.1557882563145086
515.0891888150436,0.16380291168279795
517.8962728359329,0.16830012701557873
520.6690926264382,0.17499518945476888
523.4410713071484,0.17766180685923058
526.2455913408958,0.17982384576389962
529.0158788274384,0.18003047128685973
531.785326356061,0.1804563894110391
534.5872859139781,0.18060940813118184
537.3550445639485,0.17892243851516298
540.1219644057746,0.17487956186371964
542.9213669927594,0.16948033967141407
545.686600267225,0.16410982823577416
548.4509958812232,0.1586695411475846
551.2478449957853,0.15302440409441123
554.0105563494981,0.14743095802677347
556.805701690384,0.1414131624428959
559.5667303225964,0.13533049845577946
562.3269232040038,0.13060850935249074
565.0862807140293,0.12272483657483532
567.8780333537688,0.11527886773149819
570.6357112050464,0.10662945963494534
573.3925548263542,0.10026380320945683
576.1817644509756,0.09387977659805362
578.9369307080196,0.08630412543273347
581.6912638744288,0.07953174789080819
584.4779339570123,0.07371909033915346
587.2305920494691,0.06923283855972036
589.9824181885451,0.0661574343211229
592.7665521958479,0.06411842606647705
595.5167055471175,0.061780437125784834
598.2660280801974,0.05870815963767513
601.0145201715131,0.05513456290296545
603.7952814999189,0.051820616930411866
606.5421038421155,0.04908872111993531
609.2880968749887,0.04693684473815929
612.0663301881068,0.04440244084232722
614.8106557483188,0.043892553443456356
617.554153129593,0.0434309030412209
620.2968227067649,0.041366618216039375
623.0716940541533,0.04115009743745817
625.8126991844802,0.04077707244045653
628.552877638358,0.041438331461167544
631.2922297897167,0.042924924034691864
634.0637452701958,0.041756111812619415
636.8014359932095,0.04412421175615797
639.5383015386324,0.04688141286173586
642.3073015987065,0.04993978033930121
645.0425079771339,0.053513774958401636
647.7768903008473,0.05735130392881479
650.5104489421938,0.06323222727537539
653.2431842732913,0.06871993590357908
656.0080062575216,0.07534904572224856
658.7390861754284,0.08001258676085142
661.4693439025905,0.0868110858179195
664.1987798102273,0.09474476460347693
666.9602641357596,0.10229997862071806
669.6880476268889,0.10863604608450926
672.4150104152941,0.11470634552819578
675.141152871307,0.12059451636126596
677.8993055782594,0.1268626199854181
680.6237986072192,0.13421952610345395
683.3474724178923,0.142169696986069
686.0703273797008,0.15067108015997388
688.7923638618704,0.15888569423213997
691.5463630106569,0.16644266737450547
694.2667537902307,0.17294135608517638
696.9863272009134,0.18222118906534032
699.705083611032,0.19224778791022995
702.4230233886883,0.20155084733538095
705.1728783546314,0.21218749797557057
707.8891761429404,0.2237264972358538
710.6046584062024,0.2368908929040516
713.3193255116239,0.2494682798875236
716.033177826208,0.26335854872056214
718.7462157167283,0.2822528809121791
721.491111983778,0.30041543898850137
724.2025123243511,0.32073017604532145
726.9130993442814,0.34008592928575265
729.6228734094693,0.36360914324630067
732.3318348855792,0.3885075351637954
735.0399841380749,0.4159625441312746
737.7799351068679,0.45045501560057327
740.4864512328204,0.49064914047849595
743.1921562345997,0.5419529228759565
745.8970504767931,0.5985652645794364
748.6011343237551,0.6578328394807368
751.3044081396256,0.7207241577886634
754.0394271625555,0.7818964506732752
756.741072259374,0.8395238170719199
759.4419084205874,0.8910901710873573
762.1419360094733,0.9328911460865488
764.8411553890837,0.9650275997446784
767.539566922238,0.9883182991302073
770.2371709715626,0.9991022244595367
772.9339678994475,1.0
775.6624349602753,0.9899546700592373
778.3576090181923,0.9704559344652709
781.0519770449282,0.9431030191570866
783.7455394020071,0.9059707475236863
786.4382964507422,0.8618468176972877
789.1302485522319,0.8121959659798017
791.8213960673565,0.755046920449798
794.5117393567816,0.6946150972058306
797.2012787809545,0.6302799616790995
799.922404211542,0.5652680522236586
802.6103273114531,0.4981765016119001
805.2974476305062,0.4326702219421159
807.9837655282827,0.3709810937818868
810.6692813641639,0.318463354995347
813.3539954973021,0.27238195727893494
816.037908286642,0.23804097138088468
818.7210200909067,0.2161971129401604
821.4033312686151,0.2032114525931037
824.0848421780756,0.2015679764306003
826.7655531773598,0.2032926799960762
829.4777478409233,0.2082127377328586
832.1568504666102,0.2162123574711179
834.8351542594137,0.22351741083100657
837.5126595765614,0.23013265203039324
840.1893667750774,0.23568116411435644
842.8652762117599,0.2409943383312658
845.5403882432074,0.24781922382101854
848.2147032257963,0.2527236994236
850.8882215157028,0.2556134909892224
853.5609434688704,0.25896843582879403
856.2328694410462,0.26137172909966255
858.9039997877626,0.2651672921943023
861.5743348643446,0.2687300404503264
864.2438750258916,0.27129793328361596
866.9126206273068,0.27186386569153564
869.5805720232747,0.2724115140500941
872.2477295682729,0.273588290374045
874.9140936165568,0.2753339661848016
877.5796645221853,0.2753343892752112
880.2444426389957,0.27549314393100505
882.9084283206321,0.274739148772703
885.5716219205024,0.27587409717963957
888.2340237918252,0.2787358535395312
890.8956342876045,0.2794669688157866
893.5564537606224,0.280814532400312
896.2164825634645,0.2851325247525246
898.8757210485091,0.2881992121848161
901.566194253428,0.29085009744583257
904.2238436478765,0.29584510439806844
906.88070378462,0.3001265523323502
909.5047788508018,0.30641149853952937
912.1600710251078,0.31496801229352445
914.8145749914547,0.3239986936976495
917.4682911007549,0.33499366063266384
920.1212197037094,0.3487781325646165
922.7733611508156,0.3621817467335867
925.4247157923564,0.37403352834866316
928.0752839784072,0.38396969449866053
930.725066058847,0.3905592746397622
933.3740623833291,0.3937776652513399
936.0222733013143,0.3945299554868349
938.669699162052,0.3941822910720299
941.3163403145809,0.38627709085861434
943.9621971077358,0.37670091849709453
946.607269890148,0.36179035007016397
949.2515590102339,0.3468782432375718
951.8950648162136,0.3300160827575536
954.5377876560888,0.3094542091572367
957.1797278776648,0.2871074375199376
959.8208858285398,0.26310834437949787
962.4612618561077,0.23919379533759716
965.1008563075484,0.2134983510410734
967.7396695298376,0.1873606214972772
970.3777018697583,0.16147605424355638
973.0149536738754,0.13667901103290883
975.65142528855,0.11419758574951953
978.2871170599428,0.09218249069981667
980.8902880408277,0.07271105516831268
983.5244305486303,0.05628733286470225
986.1577942462391,0.04192219774113464
988.7903794789963,0.032235832639069366
991.4221865920408,0.026490543976643396
994.0532159303111,0.023346911035247563
996.6834678385349,0.024177321743627574
999.3129426612431,0.02604464625364074
1001.9416407427561,0.026469423773260708
1004.5695624271975,0.02795860233559253
1007.1967080584836,0.029458633145145154
1009.8230779803271,0.028976567109798502
1012.4170434801454,0.02919711867973804
1015.041872349022,0.03152137992899978
1017.665926534246,0.031233704274512476
1020.2892063787294,0.0310521211956849
1022.9117122251773,0.03323671472489069
1025.5334444160871,0.03505064745581716
1028.15440329376,0.03722128693699416
1030.7745892002931,0.037850256183415365
1033.3940024775802,0.03974125357843748
1035.9810981708106,0.04142652734460518
1038.598976513018,0.04314791132396198
1041.2160832463414,0.044124760993624564
1043.832418711885,0.04404429013576255
1046.447983250535,0.04417869851200575
1049.0627772029802,0.04606036825814007
1051.676800909714,0.046547553714581344
1054.290054711022,0.04805142985524432
1056.8710678120515,0.04799462164038127
1059.48279208834,0.048918506620178485
1062.093747474777,0.04962196356739336
1064.7039343108554,0.05011478444325505
1067.313352935871,0.05066110718282285
1069.9220036889128,0.05119960216981998
1072.4984711957586,0.05156318756292615
1075.105596462614,0.05216028014985778
1077.7119548694973,0.052186302985110566
1080.317546754708,0.05181064536455538
1082.9223724563308,0.052385577820964174
1085.5264323122756,0.05129017190034167
1088.1297266602414,0.049391905072804054
1090.700904617097,0.048305377243451
1093.3026781742628,0.04908278215805838
1095.90368723129,0.048829554334969
1098.5039321250988,0.05048516673747108
1101.1034131923952,0.050909605690948996
1103.6708254619662,0.05080252393495703
1106.2687890782108,0.05115361280564766
1108.8659898728438,0.05103655738134558
1111.4624281817887,0.05295500971660577
1114.0581043407765,0.05291187690613612
1116.6217591897112,0.051986862225883335
1119.2159212276165,0.05230131331002032
1121.8093221175222,0.052144909714956895
1124.4019621943662,0.05229424490503649
1126.9938417929043,0.05389483467724071
1129.5537474636767,0.05404525357939274
1132.1441162613737,0.0538288589127849
1134.7337255797866,0.05396674644974689
1137.322575752878,0.05537667625053696
1139.9106671144218,0.055005937174432494
1142.466831825419,0.05527724213541866
1145.0534156966605,0.05508397484152588
1147.6392417524658,0.05485150203156093
1150.2243103258224,0.05528818779527614
1152.7774899721844,0.05603995373441594
1155.3610536951164,0.05704048591525203
1157.9438609293902,0.05702106641254944
1160.5259120072114,0.05645139228376655
1163.1072072606003,0.05478217436870088
1165.6566606759006,0.054418019800265456
1168.2364543720396,0.054945468565131626
1170.8154932346333,0.057170924351667554
1173.3937775949307,0.057057220789052523
1175.940257690534,0.05782399032908017
1178.5170431196166,0.058908160728730605
1181.0930750349762,0.06005701292991242
1183.6683537670833,0.06033623800068052
1186.2118657414467,0.0594969530244078
1188.7856481622657,0.059684794431030905
1191.3586783861065,0.05913196672774244
1193.9309567426717,0.05831035172174741
1196.471505782134,0.05925824412964198
1199.0422904412299,0.05941164892031743
1201.6123242170252,0.059942388049812806
1204.1506566845674,0.06077998482184763
1206.7191987172919,0.0606800266717965
1209.2869908489847,0.06083405750350281
1211.8540334080099,0.06167017352600214
1214.389411983815,0.06345549987329666
1216.9549654029506,0.06421054639103635
1219.5197702293917,0.06506223946038207
1222.0529389950316,0.0658937843523363
1224.61625662804,0.066605243016696
1227.1788266466283,0.06821667678003071
1229.7406493778217,0.06870401901913699
1232.2708732581305,0.06965170554063652
1234.8312113884967,0.06955846963216536
1237.3908032074723,0.06955879391159997
1239.9188240118929,0.07023836428303687
1242.4769331685857,0.07180195799859698
1245.0342969881858,0.0731477689770055
1247.560117592806,0.07468408115377709
1250.116000685306,0.07582998807449162
1252.6711394133126,0.07648927172248997
1255.194762689218,0.07607229538691786
1257.7484226219312,0.07515096870473197
1260.3013391610693,0.07496937799567345
1262.822767974354,0.07479886028131852
1265.3742076466478,0.07562158286104806
1267.924904894593,0.07537253550029441
1270.4441421063602,0.07500445184027114
1272.993364412563,0.07536870348686735
1275.5418452619597,0.07584782738720341
1278.0588937283464,0.07623088888164598
1280.6059015577484,0.0761411263473644
1283.1521688962057,0.07616949345052997
1285.6670314683906,0.07700947349186676
1288.2118277052796,0.0779420158573103
1290.755884415401,0.07847057821066834
1293.2685639396113,0.07851164755883046
1295.811151463251,0.0791225273891234
1298.3530004226377,0.0808134489932511
1300.8634997401532,0.08157918340244287
1303.403881424827,0.08323594474263768
1305.9129317732186,0.08443996106121653
1308.4518474532706,0.08681291568501637
1310.9900261682633,0.08843858524722625
1313.4969010306886,0.09126188161365627
1316.0336156473168,0.09424331180867587
1318.5695942569437,0.09710803064373338
1321.074296461582,0.10038023507082579
1323.6088128757874,0.1041835556245412
1326.112071126503,0.10844664229025669
1328.6451266095319,0.10984262410904702
1331.1774476773753,0.1135216324305517
1333.6785379692556,0.11691963302646308
1336.209400003383,0.12083778704405562
1338.7090494631484,0.1234716969313805
1341.2384537241596,0.126252430743813
1343.76712515721,0.12771283408338274
1346.2646113435585,0.1289588667749578
1348.7918268954818,0.1309526729563914
1351.2878753625337,0.13059858213482622
1353.8136362903097,0.1313781869836961
1356.338665972784,0.1317770608791545
1358.832555838333,0.13215629126514006
1361.3561327831994,0.1323464269706327
1363.8485880333137,0.13161733338143228
1366.3707134939323,0.13110095756070844
1368.8921092873425,0.13031887191278124
1371.3824105944368,0.1291912422341219
1373.9023567847216,0.12696330438326234
1376.3912265713043,0.1244324186685283
1378.9097244082113,0.12226310270993537
1381.3971639082774,0.1205284773970338
1383.914214640121,0.11813163040942476
1386.4002250862322,0.1162670288769938
1388.9158299598967,0.11437163921675816
1391.4307079939972,0.11192647938429634
1393.9145728441363,0.10999787883304436
1396.4280068914595,0.10956203485176644
1398.9104457665926,0.10914465138355917
1401.422437070447,0.10891487027152032
1403.9034511981918,0.10785293116371172
1406.4140010004412,0.10886669421229082
1408.893591607004,0.10872180104628289
1411.4027011481012,0.10923897776123491
1413.8808694582804,0.10991788850566146
1416.388539977259,0.11128982278270826
1418.8954870924463,0.11295166830233881
1421.3715199489052,0.11442337534820418
1423.877029901585,0.11703630674826095
1426.3516435212223,0.11883239180547586
1428.8557175468777,0.12260548990986049
1431.3289131495767,0.12641318616110625
1433.8315524822574,0.1302016910220162
1436.3033312865118,0.1339033928523318
1438.8045371588632,0.13781085084609873
1441.2749003817698,0.14087880606740655
1443.7746740250223,0.1431420608431296
1446.2436228822844,0.1461025478300717
1448.7419655262602,0.14914780600467875
1451.2095012321843,0.1527427461859791
1453.7064141053015,0.1576312899933308
1456.1725378728079,0.16114682633926403
1458.6680222020732,0.16281903254378077
1461.1327352426997,0.16634977198884848
1463.6267922537227,0.16886003152898996
1466.090095777603,0.17126689071150236
1468.582726694589,0.1735534308830165
1471.044621910496,0.1746537485027913
1473.5358279562424,0.17460889837791121
1475.996316071556,0.17377840043315373
1478.4860984674815,0.17316875568777837
1480.9451806882025,0.17115490639936307
1483.4335406543069,0.1682842702239465
1485.8912181850574,0.16670020795482787
1488.3781569399653,0.16339888624692514
1490.8344309839958,0.1611625782548992
1493.2900079848114,0.15843724287352856
1495.7748215041174,0.15520562709246394
1498.2289968168734,0.15143251726639242
1500.7123921617567,0.147536276543838
1503.1651669862695,0.14314737576205733
1505.647145370498,0.1379256662900216
1508.0985209052233,0.13398270141197063
1510.579083541168,0.13093751887998853
1513.02906098319,0.1275331379652253
1515.5082090818432,0.12407641181035779
1517.9567896268818,0.12202909649395607
1520.4046764008053,0.12066897488765652
1522.8817092402714,0.11906275163922969
1525.3282009046197,0.1175748423295381
1527.803822224585,0.11681860138783338
1530.2489199716838,0.11560669125921726
1532.7231309783128,0.11603538959524234
1535.16683599912,0.11867411203956967
1537.6098493197496,0.12001100859437845
1540.0819513813403,0.12197821876376101
1542.5235737559778,0.12475188672986459
1544.994268510025,0.12782489495755772
1547.4345011262485,0.1325467773147056
1549.8740435159852,0.13739575884391275
1552.3426338181598,0.14245032938899674
