Raman Shift (cm-1),Processed Intensity
159.26151312198635,0.030508990838564988
162.17892251266312,0.043098108913598915
165.06070388440276,0.05377777906958731
167.97629817665074,0.06270827998786055
170.89098012548493,0.06997862478237842
173.77006778237046,0.07567460229134688
176.68293717714914,0.07996142637378119
179.59489550712533,0.08292571590927214
182.50594319967058,0.08468005029778258
185.38144153980102,0.08530737350568703
188.29068006676243,0.08497893606540759
191.19900923170644,0.08377843358259675
194.07182265961455,0.08178687039455979
196.97834519226308,0.07917962649026547
199.8839596359394,0.0760384018889799
202.75409191031576,0.07244241808256596
205.65790225025557,0.0717839134969287
208.5608057718964,0.06871488321932313
211.42826064439942,0.06277773032964024
214.32936258615155,0.05748812505116384
217.22955897789507,0.05354841857471814
220.09434019320543,0.049300076246742056
222.9927375242005,0.046308462844466186
225.89023057112718,0.043090057140964845
228.75234186693342,0.04266323194755592
231.64803836756255,0.04300894341174662
234.54283184768065,0.04240727923025409
237.4022769547155,0.04405468842746553
240.2952763983085,0.045911598038322614
243.18737408261222,0.05108975916452342
246.04415672466348,0.05586877965306264
248.93446287752522,0.0603485941735804
251.82386852998388,0.0659661492108338
254.67799242389083,0.0699240090866249
257.565609045334,0.07464426885901072
260.41796602711474,0.07829913994700459
263.3037952786035,0.08263793014532504
266.18872612093764,0.08500626864967523
269.0384305290536,0.08574195132615943
271.9215764941182,0.085582770414004
274.8038253026716,0.08568657047581815
277.65088083558294,0.0847692315185418
280.5313472549242,0.08357473240409327
283.37664243438485,0.0811973127866019
286.2553281173605,0.0795747565770776
289.13311872473423,0.07609840383527924
291.97577117291803,0.07269992847409908
294.85178352428557,0.06853619959980427
297.6926797004962,0.06455774313116783
300.5669154435891,0.06094040354075553
303.44025818556474,0.056789385790168734
306.2785177554506,0.05145988340064593
309.150086361853,0.04939834408170333
311.98659372863403,0.045583148088851694
314.85638984211255,0.042458368780615076
317.69114662786524,0.04030672003553839
320.55917188903913,0.03685330503595206
323.42630704161274,0.03545874923860953
326.25843576130865,0.033435413199996496
329.1238025236089,0.03275682686222062
331.9541847135806,0.029667777650373133
334.8177847211591,0.028145958195787486
337.6464219965019,0.02556530789820851
340.5082568828984,0.023005582493872245
343.3351508567066,0.02023720818951895
346.1952222534492,0.017364017594228308
349.0203745368344,0.016850012930462673
351.8786840734356,0.013554081127115883
354.7361080202609,0.012809467805721652
357.55864557949826,0.013969680618773878
360.4143101115624,0.013707416534838583
363.23511000427607,0.013527349827864242
366.08901674608205,0.014920344971015468
368.90808057645336,0.01629617778934122
371.7602311504961,0.017084694598824498
374.57756052071636,0.016185175165934214
377.42795654749716,0.017572937255013313
380.2435530577968,0.019159794727558785
383.0921961558306,0.02172031857798094
385.90606140446107,0.02435322502349019
388.7529531902692,0.025889478745269846
391.56508877352826,0.027580577919905876
394.41023086164205,0.030168340646800445
397.2206383738594,0.03145721871611314
400.0640323768239,0.031824685513923937
402.8727134103756,0.0331017309180349
405.71436093876036,0.033242224789523066
408.5213170840616,0.03609241426773633
411.36121974646085,0.03653949787159553
414.16645259197685,0.03873328053475348
417.00461199500205,0.040606758428051414
419.8081231272481,0.042637520166608364
422.6107791472823,0.04368596467737417
425.446331879084,0.04578508201810252
428.2472685572284,0.04453651986685163
431.0810820327788,0.04646738826781997
433.88030095069917,0.04700978496124775
436.71237676973396,0.04545369053248647
439.5098795071426,0.04652377800799076
442.3402192674366,0.04766449535688046
445.1360074021177,0.045913727421227866
447.930943955329,0.04553900693959575
450.75868780728706,0.04565207411455649
453.5519121161087,0.045383230733278046
456.3779238904244,0.046360994277342776
459.1694375278166,0.04675719090294692
461.99371881542174,0.04825107888691213
464.7835233524238,0.04787734422579915
467.5724790401364,0.04888898676496727
470.39417274803054,0.051422066964833646
473.18142168360646,0.054031861864281196
476.00138886887726,0.056966940418265714
478.7869326185464,0.0616020811647373
481.60517486533354,0.0656069123186704
484.3890149934232,0.06845464519250313
487.17200899273666,0.07295004730447797
489.9876719528438,0.07658550559475423
492.76896466880135,0.08195468156615109
495.5829066375736,0.08741182402880936
498.3624996297294,0.09518523777787351
501.14124842855017,0.101169154966313
503.9526170105346,0.10626206066439767
506.7296684166504,0.11148052181201622
509.505876786945,0.11738626741774119
512.3146755106209,0.12172796094973005
515.0891888150436,0.12693463958073076
517.8962728359329,0.13079368978297592
520.6690926264382,0.1342387066431386
523.4410713071484,0.13781984155349908
526.2455913408958,0.14040409524579464
529.0158788274384,0.14228883853818142
531.785326356061,0.14362923708969608
534.5872859139781,0.1443399763832242
537.3550445639485,0.1439538568151627
540.1219644057746,0.1424790387219666
542.9213669927594,0.13843935009697406
545.686600267225,0.1360976430415925
548.4509958812232,0.1325489647149662
551.2478449957853,0.12956191812443596
554.0105563494981,0.12731887555428262
556.805701690384,0.12234498840539028
559.5667303225964,0.11664063288808037
562.3269232040038,0.11157747737328769
565.0862807140293,0.10399127550984431
567.8780333537688,0.09797837449618645
570.6357112050464,0.0927730504939581
573.3925548263542,0.08721236261900187
576.1817644509756,0.08369571180697637
578.9369307080196,0.08051070883086993
581.6912638744288,0.0752617665270176
584.4779339570123,0.07126419656662698
587.2305920494691,0.0660237310305841
589.9824181885451,0.06312509631639675
592.7665521958479,0.05981514425041415
595.5167055471175,0.05733082690621359
598.2660280801974,0.05516600548970642
601.0145201715131,0.05380605221717212
603.7952814999189,0.05188667172310572
606.5421038421155,0.05089495533979657
609.2880968749887,0.04961758242137309
612.0663301881068,0.04983453071045498
614.8106557483188,0.04726742108968538
617.554153129593,0.0447448318292811
620.2968227067649,0.0443150480023419
623.0716940541533,0.04298261266302134
625.8126991844802,0.043458178243370914
628.552877638358,0.04458075193036496
631.2922297897167,0.045261795249871124
634.0637452701958,0.0469111191453499
636.8014359932095,0.04870925666165718
639.5383015386324,0.049967486583034994
642.3073015987065,0.054107763564660745
645.0425079771339,0.058157674144978626
647.7768903008473,0.061837499610621044
650.5104489421938,0.06842926738757252
653.2431842732913,0.0734359478588352
656.0080062575216,0.07993835667166925
658.7390861754284,0.08748216521594969
661.4693439025905,0.09219836978658123
664.1987798102273,0.09833868088139842
666.9602641357596,0.10519257028344593
669.6880476268889,0.1115033031940467
672.4150104152941,0.11863380536623054
675.141152871307,0.1272574602892529
677.8993055782594,0.13588051189596173
680.6237986072192,0.14259528017076759
683.3474724178923,0.1510955799655957
686.0703273797008,0.15892930972507158
688.7923638618704,0.16743280607690234
691.5463630106569,0.175209241083768
694.2667537902307,0.1828322396865494
696.9863272009134,0.19115471895697714
699.705083611032,0.2020238848961439
702.4230233886883,0.2147836658131448
705.1728783546314,0.2260216034716363
707.8891761429404,0.24004336161099335
710.6046584062024,0.2541738692731651
713.3193255116239,0.2706285966288328
716.033177826208,0.2903517526072577
718.7462157167283,0.3110248771376253
721.491111983778,0.332139245988406
724.2025123243511,0.3555621646248271
726.9130993442814,0.3788509970178654
729.6228734094693,0.40127944403960447
732.3318348855792,0.4287600657297189
735.0399841380749,0.4608914309634489
737.7799351068679,0.499985340176751
740.4864512328204,0.5473060120097325
743.1921562345997,0.6037974623072597
745.8970504767931,0.6659179401679188
748.6011343237551,0.7283536002955823
751.3044081396256,0.7917549218405671
754.0394271625555,0.8503920203010427
756.741072259374,0.9013638553456875
759.4419084205874,0.9411534543802657
762.1419360094733,0.9718115934848928
764.8411553890837,0.9925825869922125
767.539566922238,1.0
770.2371709715626,0.9968363356314787
772.9339678994475,0.9840746054093527
775.6624349602753,0.9610456187384125
778.3576090181923,0.9290775703869333
781.0519770449282,0.8887150670739783
783.7455394020071,0.8400159384220082
786.4382964507422,0.7845166662772288
789.1302485522319,0.7238993678794772
791.8213960673565,0.6591844244502916
794.5117393567816,0.5927444690076078
797.2012787809545,0.5250998374964163
799.922404211542,0.454573723304143
802.6103273114531,0.3858245624931563
805.2974476305062,0.3215974717710018
807.9837655282827,0.2631699894682675
810.6692813641639,0.21173638717211812
813.3539954973021,0.17533914884396226
816.037908286642,0.15059762158866857
818.7210200909067,0.13707783847051816
821.4033312686151,0.13576283141074066
824.0848421780756,0.14087735899785184
826.7655531773598,0.1478460367626515
829.4777478409233,0.15706914153909904
832.1568504666102,0.16650935212226115
834.8351542594137,0.17374693067215422
837.5126595765614,0.1785790065741716
840.1893667750774,0.18424830201325246
842.8652762117599,0.1886071155483577
845.5403882432074,0.1921507814627867
848.2147032257963,0.19369995179606445
850.8882215157028,0.19630058384846535
853.5609434688704,0.19940329790953146
856.2328694410462,0.1996367185158983
858.9039997877626,0.2009772877314242
861.5743348643446,0.2036074884276145
864.2438750258916,0.20519017822424576
866.9126206273068,0.20580779593937187
869.5805720232747,0.20757318910454622
872.2477295682729,0.20833566571889012
874.9140936165568,0.20824934082690608
877.5796645221853,0.20709077653581062
880.2444426389957,0.20772789251317847
882.9084283206321,0.20891339324142189
885.5716219205024,0.20928063278417164
888.2340237918252,0.20923670530757366
890.8956342876045,0.2097733593737565
893.5564537606224,0.2099777994724718
896.2164825634645,0.21050715831844802
898.8757210485091,0.21288967517109234
901.566194253428,0.2166623363271882
904.2238436478765,0.2213268576352201
906.88070378462,0.22755284314229243
909.5047788508018,0.23404419897948836
912.1600710251078,0.2429436907490953
914.8145749914547,0.2549064080627622
917.4682911007549,0.2667467580477918
920.1212197037094,0.28018359917689184
922.7733611508156,0.2914131458317774
925.4247157923564,0.30050670673238356
928.0752839784072,0.3070138190627365
930.725066058847,0.31249528850602665
933.3740623833291,0.31430735424042805
936.0222733013143,0.3116879477318961
938.669699162052,0.3086769533861362
941.3163403145809,0.3022698035742213
943.9621971077358,0.29175150444536163
946.607269890148,0.27722515514357904
949.2515590102339,0.26221671676285907
951.8950648162136,0.24322529762812065
954.5377876560888,0.22316725332759893
957.1797278776648,0.20249611981145255
959.8208858285398,0.18205345927864547
962.4612618561077,0.15921180207215532
965.1008563075484,0.13486999836326638
967.7396695298376,0.11184919423510789
970.3777018697583,0.0905891748911668
973.0149536738754,0.06952349226916059
975.65142528855,0.051604704427179175
978.2871170599428,0.03638777268010164
980.8902880408277,0.02198926653745566
983.5244305486303,0.01062022584531255
986.1577942462391,0.003996510184385652
988.7903794789963,0.0006142444436902558
991.4221865920408,0.0
994.0532159303111,0.00123363790085363
996.6834678385349,0.002909699403276134
999.3129426612431,0.005513344798289672
1001.9416407427561,0.0058470758305848485
1004.5695624271975,0.007676023985734816
1007.1967080584836,0.008581132473432881
1009.8230779803271,0.010519108121782288
1012.4170434801454,0.012922799840716592
1015.041872349022,0.01401814088625345
1017.665926534246,0.017666729979418816
1020.2892063787294,0.018424387930602047
1022.9117122251773,0.020647420564589077
1025.5334444160871,0.0222403197590011
1028.15440329376,0.025820054979754467
1030.7745892002931,0.029237665913973046
1033.3940024775802,0.031356846770470154
1035.9810981708106,0.03421834950014493
1038.598976513018,0.03666563506754464
1041.2160832463414,0.03898209848494196
1043.832418711885,0.04059375028116808
1046.447983250535,0.04247370055783992
1049.0627772029802,0.04412231798211173
1051.676800909714,0.046752318862002554
1054.290054711022,0.046806520710445956
1056.8710678120515,0.048436390693291566
1059.48279208834,0.048261666080072575
1062.093747474777,0.048013687549322386
1064.7039343108554,0.049787417537946556
1067.313352935871,0.04998069545290994
1069.9220036889128,0.049305373255700786
1072.4984711957586,0.048453239405869715
1075.105596462614,0.047481477395802926
1077.7119548694973,0.04681973262014972
1080.317546754708,0.045843912538133254
1082.9223724563308,0.04554963107068857
1085.5264323122756,0.045106390645428894
1088.1297266602414,0.045539952826279935
1090.700904617097,0.04536213844261328
1093.3026781742628,0.043851764172806375
1095.90368723129,0.044400298551379266
1098.5039321250988,0.04239781857006495
1101.1034131923952,0.04296078106555519
1103.6708254619662,0.041335493759202487
1106.2687890782108,0.04148069343598089
1108.8659898728438,0.04162510392454376
1111.4624281817887,0.04067198436689559
1114.0581043407765,0.04177587627199133
1116.6217591897112,0.041852706709497534
1119.2159212276165,0.04295032144562829
1121.8093221175222,0.04251354102496624
1124.4019621943662,0.0422100072118628
1126.9938417929043,0.04322493371008817
1129.5537474636767,0.044636148746467756
1132.1441162613737,0.04412874730538432
1134.7337255797866,0.044640962117792005
1137.322575752878,0.04431532791778477
1139.9106671144218,0.04417573933785004
1142.466831825419,0.04390478408499289
1145.0534156966605,0.043484511116688045
1147.6392417524658,0.04212910066587865
1150.2243103258224,0.04126253128579466
1152.7774899721844,0.04162633430674535
1155.3610536951164,0.041835880535669105
1157.9438609293902,0.04211275186654708
1160.5259120072114,0.0424442073458005
1163.1072072606003,0.042079163443449044
1165.6566606759006,0.04134979733335273
1168.2364543720396,0.03972984983065241
1170.8154932346333,0.038434061603354906
1173.3937775949307,0.03936541381814478
1175.940257690534,0.03867793311981831
1178.5170431196166,0.039105377793885183
1181.0930750349762,0.03901183113590678
1183.6683537670833,0.039971589740756944
1186.2118657414467,0.04127581666090415
1188.7856481622657,0.042383195263568055
1191.3586783861065,0.043275564608566824
1193.9309567426717,0.042488632171776036
1196.471505782134,0.043305959610100156
1199.0422904412299,0.04303849958927853
1201.6123242170252,0.04374855504368931
1204.1506566845674,0.04499967707231521
1206.7191987172919,0.044135061003980326
1209.2869908489847,0.044122784700341144
1211.8540334080099,0.04251242444350415
1214.389411983815,0.04332924653040887
1216.9549654029506,0.04402022128722966
1219.5197702293917,0.04282833882936086
1222.0529389950316,0.04268245490026125
1224.61625662804,0.041271049585858983
1227.1788266466283,0.04139900424474619
1229.7406493778217,0.04104562688014009
1232.2708732581305,0.03863828431156417
1234.8312113884967,0.037705229676952536
1237.3908032074723,0.035871085724456735
1239.9188240118929,0.03365505335007814
1242.4769331685857,0.031604536921092476
1245.0342969881858,0.028425875077855076
1247.560117592806,0.02840431233112942
1250.116000685306,0.028688158691801555
1252.6711394133126,0.027644426476089678
1255.194762689218,0.026970311280763805
1257.7484226219312,0.026491014421281472
1260.3013391610693,0.027144750131696593
1262.822767974354,0.02692029018954097
1265.3742076466478,0.026824388208802622
1267.924904894593,0.02590223044286069
1270.4441421063602,0.025733383259369573
1272.993364412563,0.025563720689375877
1275.5418452619597,0.024963002290184628
1278.0588937283464,0.024787208335721064
1280.6059015577484,0.025405560203986852
1283.1521688962057,0.025660899450657956
1285.6670314683906,0.027058227418973218
1288.2118277052796,0.027849892114194703
1290.755884415401,0.029385818342019553
1293.2685639396113,0.030647468470993554
1295.811151463251,0.03022754787823953
1298.3530004226377,0.031618781753891004
1300.8634997401532,0.03219367851962616
1303.403881424827,0.032622438307674646
1305.9129317732186,0.031711719873733786
1308.4518474532706,0.03344742883666001
1310.9900261682633,0.0364811767786859
1313.4969010306886,0.0380824276009677
1316.0336156473168,0.039764008944917446
1318.5695942569437,0.040992326729995164
1321.074296461582,0.04414321520452344
1323.6088128757874,0.048120885884176824
1326.112071126503,0.05020114413393086
1328.6451266095319,0.05342420923355967
1331.1774476773753,0.056331584453477676
1333.6785379692556,0.060441363222801706
1336.209400003383,0.06424107304025009
1338.7090494631484,0.06776676068365962
1341.2384537241596,0.0708978444495963
1343.76712515721,0.07310317918872045
1346.2646113435585,0.07491818909670679
1348.7918268954818,0.07624843288722853
1351.2878753625337,0.0776001999851399
1353.8136362903097,0.07908540847384099
1356.338665972784,0.08183754582625839
1358.832555838333,0.08209701664015472
1361.3561327831994,0.08234306273291184
1363.8485880333137,0.08164962579191806
1366.3707134939323,0.08092939483220402
1368.8921092873425,0.08036280965482175
1371.3824105944368,0.07868724386381495
1373.9023567847216,0.07544906087744142
1376.3912265713043,0.07234328594154242
1378.9097244082113,0.07059844499385654
1381.3971639082774,0.06971650683075652
1383.914214640121,0.06842432907104881
1386.4002250862322,0.06620913713736573
1388.9158299598967,0.06579214961636026
1391.4307079939972,0.06369100794661267
1393.9145728441363,0.06191617998058567
1396.4280068914595,0.06066299653306102
1398.9104457665926,0.060253505576985646
1401.422437070447,0.06028389279360797
1403.9034511981918,0.061882324646158594
1406.4140010004412,0.0634398917073422
1408.893591607004,0.06668595210169463
1411.4027011481012,0.06886977198757752
1413.8808694582804,0.07067587136874745
1416.388539977259,0.07351707164398373
1418.8954870924463,0.0775992550202912
1421.3715199489052,0.08309656143683351
1423.877029901585,0.08771182858775671
1426.3516435212223,0.09255487763556688
1428.8557175468777,0.09947127360001326
1431.3289131495767,0.10683942232070891
1433.8315524822574,0.11317138266180436
1436.3033312865118,0.12069945304444875
1438.8045371588632,0.12727412908412167
1441.2749003817698,0.13395687469759854
1443.7746740250223,0.13982041519166236
1446.2436228822844,0.14508288170395914
1448.7419655262602,0.14945554533788807
1451.2095012321843,0.15494823235305616
1453.7064141053015,0.1602352170114332
1456.1725378728079,0.1646458996088051
1458.6680222020732,0.1672261135603366
1461.1327352426997,0.1701069339929716
1463.6267922537227,0.17139627102017668
1466.090095777603,0.16894000674409818
1468.582726694589,0.16660076422111392
1471.044621910496,0.1644145746578884
1473.5358279562424,0.1625562974498252
1475.996316071556,0.15772174900976152
1478.4860984674815,0.1527342719940454
1480.9451806882025,0.14728532795252766
1483.4335406543069,0.14134001839044558
1485.8912181850574,0.13360725876363008
1488.3781569399653,0.12780196300090632
1490.8344309839958,0.12239798383444636
1493.2900079848114,0.11608591203261907
1495.7748215041174,0.10963822439977672
1498.2289968168734,0.10386392471874527
1500.7123921617567,0.10024831507144864
1503.1651669862695,0.09534508007351615
1505.647145370498,0.09168390539353254
1508.0985209052233,0.08711529277332437
1510.579083541168,0.08331476742804879
1513.02906098319,0.07806476153561723
1515.5082090818432,0.0741571097708291
1517.9567896268818,0.07107052093421848
1520.4046764008053,0.0692650127737942
1522.8817092402714,0.06765668768924879
1525.3282009046197,0.06729999456701906
1527.803822224585,0.06835562845221473
1530.2489199716838,0.06958432912465742
1532.7231309783128,0.06980164295201345
1535.16683599912,0.07084670331997218
1537.6098493197496,0.07331283903331925
1540.0819513813403,0.07503184712691006
1542.5235737559778,0.07722786859664074
1544.994268510025,0.08099098332323082
