Raman Shift (cm-1),Fitted Intensity
307.71441355443676,0.03183421938793015
308.36391220437145,0.03206467281435672
309.01336522421843,0.03229650051460992
309.6969506915775,0.032542014403575174
310.34631006473137,0.03277666302585802
310.99562382247314,0.03301268572642596
311.6790627139999,0.03326261480371378
312.32828285516734,0.03350145690912294
312.9774573955983,0.033741671802934504
313.6607497584264,0.033996011919794074
314.30983071238734,0.0342390424215705
314.9588660802692,0.03448344329473999
315.64201196152135,0.034742186680506444
316.29095377302656,0.0349893970166585
316.93985001311376,0.03523797414614108
317.58870068658143,0.03548791663844286
318.27165217367656,0.03575248732751191
318.920409330698,0.036005227374752063
319.5691209357501,0.0362593276105032
320.25192605085977,0.036528268837594996
320.9005441695299,0.03678515473744537
321.54911675086987,0.0370433944056469
322.2317755410477,0.03731668553610213
322.8802546660554,0.03757769638017209
323.52868826836857,0.037840053287014466
324.2112007806463,0.03811766955545727
324.8595409566624,0.03838278046901345
325.5078356246195,0.038649228412455
326.19020190600713,0.03893114078814475
326.8384031776877,0.03920032279959072
327.486558955934,0.03947083143617912
328.1687790534197,0.0397570064798369
328.81684146540283,0.04003022638173545
329.4648583985654,0.04030476108462812
330.14693235912273,0.04059516079560435
330.7948559560209,0.04087238099614096
331.4427340887123,0.04115090270319202
332.12466195928937,0.04144548435575893
332.7724467857006,0.0417266627194902
333.4201861625079,0.04200912777021348
334.10196799003825,0.042307843737730666
334.74961409053867,0.042592933414378586
335.3972147560344,0.04287929337456143
336.07885058742613,0.043182090940172564
336.7263580065737,0.04347104018020345
337.3738200053085,0.043761241652866455
338.05530988745886,0.04406806280537767
338.70267866978975,0.04436081476104517
339.3500020462998,0.044654799182438636
340.03134602607315,0.04496558039594898
340.67857621611256,0.045262072906470614
341.3257610149085,0.045559776325747925
342.00695913915115,0.045874448321644
342.6540507814025,0.04617461368114439
343.30109704698043,0.04647596652237986
343.98214936252407,0.04679445401225516
344.62910250146524,0.04709821871914629
345.2760102782995,0.04740314552434457
345.95691683195764,0.04772536693245102
346.60373151205204,0.0480326514189424
347.25050084460236,0.048341070570759655
347.93126168316303,0.048666937734650854
348.57793794885583,0.04897765607512434
349.2245688815601,0.04928947949806209
349.9051840517932,0.04961889734617875
350.55172194750776,0.04993295694327432
351.1982145247821,0.05024808978223355
351.8786840734356,0.05058095598728333
352.52508364358073,0.05089825723466951
353.17143790982664,0.05121659750988518
353.851761883634,0.051552802117056214
354.4980231725931,0.051873238038012054
355.1442391721903,0.05219467627556465
355.8244176178596,0.05253410130480288
356.47054067000136,0.05285755716599279
357.116618447315,0.05318197600335813
357.796651411536,0.05352449502524144
358.4426362712111,0.05385084792530521
359.0885758705808,0.05417812169166997
359.73447021440006,0.0545063019026888
360.4143101115624,0.05485271780966287
361.06011157731336,0.05518271208113248
361.7058678020294,0.0555135667799803
362.3855623263371,0.055862747116598215
363.03122570277264,0.05619531824681869
363.6768438526851,0.056528700659918565
364.3563930507662,0.056880487490195066
365.00191838217506,0.05721548211746169
365.64739850156184,0.05755123558956308
366.3268024200188,0.05790546039356712
366.97218975066426,0.05824271492606173
367.6175318837886,0.05858067239880063
368.29679056920577,0.058937155516854196
368.94203994333657,0.059276495598385916
369.58724413443633,0.05961647907026723
370.26635763338345,0.05997502912870942
370.9114690952265,0.06031626908808906
371.5565353885286,0.06065808905934836
372.2355037475427,0.06101850238178981
372.88047734131396,0.06136144466991023
373.52540578101616,0.06170489957659727
374.20422904662337,0.062066959585658374
374.8490648165134,0.06241139420532365
375.49385544680626,0.0627562698480682
376.1725336655036,0.063119746463665
376.81723165568474,0.06346545039838514
377.4618845207333,0.06381151937238773
378.14041773901045,0.06417616841397766
378.78497799363686,0.06452290506314394
379.429493137588,0.06486992619728685
380.10788140190925,0.06523548879878362
380.75230396511324,0.06558300742800632
381.3966814320993,0.0659307252423147
382.0749247889071,0.06629692728995212
382.7192097048028,0.06664496250680135
383.3634495389306,0.06699310669898118
384.0415480346528,0.06735965830396225
384.6856953473434,0.0677079295708945
385.32979759270165,0.06805621454427575
386.0077512737407,0.06842280956373147
386.6517610273004,0.06877102076160166
387.29572572796314,0.06911914520843916
387.97353464070693,0.06948546083001657
388.61740687919155,0.06983329988731254
389.2612340792148,0.07018094644311323
389.9388982700257,0.07054664285027666
390.58263303748026,0.07089378145489297
391.22632278089804,0.07124061644117678
391.9038422961203,0.07160533657817594
392.547439636568,0.07195142999028542
393.190991967389,0.07229710326490689
393.86836685335584,0.07266047272213684
394.51182681079445,0.07300515970843453
395.1552417730236,0.07334930464428065
395.832472076032,0.07371093168648458
396.47579469444827,0.0740538345976859
397.1190723320615,0.07439606821208947
397.7961580983974,0.07475554397353064
398.43934342176,0.07509626898845942
399.08248377871496,0.07543619224717592
399.7594250546499,0.0757930911192485
400.4024731269019,0.07613122868017136
401.04547624713814,0.07646842700090861
401.6884344200698,0.07680463999343165
402.3651839439881,0.0771574327037894
403.0080498714269,0.07749147668524169
403.6508708659494,0.07782439160801469
404.3274760070817,0.07817355579991254
404.9702047856299,0.07850400220282928
405.6128886456281,0.07883317154307512
406.2893494501732,0.07917823169360592
406.931941123712,0.0795046247005735
407.5744878930782,0.0798295888451316
408.2508044072092,0.08017005724727816
408.89325901960547,0.08049193002758788
409.53566874219905,0.08081221893329103
410.211841012082,0.08114759757121945
410.8541586071806,0.0814644741762599
411.4964313268356,0.08177960937891048
412.17245939861095,0.08210939216812206
412.81464002024586,0.08242078978125243
413.4567757807854,0.08273028676647293
414.13265970057546,0.08305396218259309
414.7747033925516,0.08335939374521836
415.41670223778056,0.08366276470203375
416.09244205168943,0.08397981881916355
416.73434885779716,0.08427879605187961
417.37621083150225,0.0845755530267729
418.0518065856122,0.08488547298277899
418.6935765496237,0.08517750981676371
419.33530169556616,0.08546716828204855
420.01075343593766,0.08576944618383191
420.6523866016105,0.08605406261333291
421.2939749635407,0.08633614545911403
421.9692827362196,0.08663028273581275
422.6107791472823,0.08690700909750358
423.2522307689287,0.08718105105118641
423.92739461993915,0.08746656325748199
424.5687543201093,0.08773494493680035
425.21006924518224,0.08800049740827372
425.8850892205264,0.08827691947361023
426.5263122535034,0.08853652203191463
427.1674905256914,0.08879315837612134
427.842366671357,0.08906005028877566
428.48345308081844,0.0893104649985593
429.124494743799,0.08955778618045487
429.79922710574465,0.08981473908821316
430.4401769353535,0.09005558885673294
431.0810820327788,0.09029322949670754
431.75567065695213,0.09053987219867152
432.39648395034965,0.09077081785346237
433.03725252585355,0.0909984526245178
433.71169745818406,0.09123445842143806
434.3523742589896,0.09145520532460724
434.9930063561915,0.091672555666125
435.6673076425832,0.09189764953016172
436.30784799440517,0.09210795448241102
436.94834365689894,0.09231479558973353
437.6225013432377,0.09252876160902229
438.26290528966274,0.09272843999954754
438.90326456103503,0.09292460804433372
439.57727869318114,0.09312729709385574
440.2175462777777,0.09331623024932008
440.85776920158605,0.0935016297834006
441.53163982539263,0.09369296737231987
442.1717710917037,0.09387111005781805
442.81185771149467,0.09404572155420451
443.4518996894294,0.09421680867133923
444.1255798643506,0.09439310383077076
444.7655302236417,0.09455699132076131
445.40543595533745,0.09471739487511718
446.0789727285555,0.09488249894008796
446.718786870857,0.09503581771711077
447.35855639980946,0.09518572458298993
448.03194981711204,0.09533986929908608
448.67162778590864,0.09548287368032252
449.3112611555989,0.09562257231371343
449.9845112627445,0.09576609912920656
450.62405310151007,0.09589915029846159
451.26355035539746,0.09602903861921527
451.9366571981336,0.09616240703520905
452.5760629503129,0.09628598103863248
453.21542413184943,0.09640657450270339
453.8883877558983,0.09653037067244788
454.5276574649215,0.09664506670702308
455.16688261753006,0.09675700673615734
455.83970306859555,0.09687195252250194
456.47883677788195,0.09697850174995779
457.11792594496364,0.09708256478785897
457.79060326873514,0.09718952760470057
458.4296010216749,0.09728880284426625
459.0685542466272,0.09738591043860968
459.74108848876494,0.09748591434982075
460.3799503287337,0.09757894115325262
461.01876765492125,0.09767017162210939
461.69115886107465,0.0977644103483804
462.3298848314371,0.09785238013686541
462.96856630221373,0.09793898256114912
463.64081451800666,0.09802883524370326
464.27940466209475,0.09811312137866193
464.91795032079244,0.0981965328561436
465.5900555918379,0.09828358362934925
466.2285099529763,0.09836576147785583
466.86691984291247,0.09844762875532467
467.5388822147943,0.09853369135802319
468.1772008362859,0.09861556356557581
468.8154750007525,0.09869777029605895
469.48729451904,0.09878491905892149
470.1254774441695,0.09886854730960559
470.7636159264475,0.0989532482079746
471.4352926366919,0.09904385672971082
472.0733399087185,0.09913160119269279
472.7113427520708,0.09922126421713151
473.38287669979763,0.09931805280949692
474.0207883619769,0.09941262016498684
474.65865560964085,0.0995100774545787
475.33004684036496,0.09961616990957423
475.9678229359197,0.09972067023523117
476.60555463111814,0.09982917780449359
477.27680319033243,0.09994816713447732
477.9144437624782,0.10006617894086864
478.55203994841577,0.10018948400289798
479.2231458815877,0.10032550546385592
479.86065097351093,0.10046114674772129
480.4981116933777,0.10060355997529605
481.1690750459602,0.10076136788785237
481.8064447008437,0.10091936922805943
482.4437699978007,0.10108583729216254
483.11459081522844,0.10127087997812095
483.7518250762223,0.10145665351113528
484.3890149934232,0.10165282496929307
485.0261605714659,0.10186008100326521
485.69679223135245,0.10209100543429409
486.3338468119291,0.10232328069263515
486.9708570674702,0.1025689055351777
487.64134629787804,0.10284275682099042
488.2782655849405,0.10311831079361622
488.9151405610901,0.10340973161429756
489.5854874073884,0.10373459649003701
490.22227144403223,0.10406136115748936
490.85901118387847,0.10440674553521033
491.5292156914147,0.1047914653456639
492.1658645207208,0.10517805916031277
492.8024690673301,0.10558622441792394
493.4725312814371,0.10604027670726864
494.1090449464573,0.10649586917835309
494.74551434288514,0.10697612370447869
495.41543430887396,0.1075094292428504
496.0518128526528,0.10804353239614871
496.6881471419292,0.10860544220134134
497.3579249050963,0.1092280922528257
497.9941683706493,0.10985027605660329
498.630367595797,0.11050335581508199
499.3000032014097,0.11122526135971018
499.93611163174137,0.11194479724115008
500.5721758357504,0.11269813244725223
501.2416693290652,0.11352860505723027
501.87764276716916,0.11435404925617094
502.51357199301856,0.11521586357726671
503.18292341926644,0.11616314504985822
503.8187619081,0.11710187988507911
504.4545561987579,0.11807906712020741
505.12376560315533,0.11914982911232608
505.7594691856684,0.12020758237132054
506.39512858407033,0.12130522236808018
507.0641960118155,0.12250405433090834
507.69976473093993,0.12368441092029536
508.33528928001033,0.12490527898728529
509.0042147762797,0.12623416770162613
509.63964867492905,0.12753806841066326
510.27503841757425,0.12888212298782364
510.94382202752604,0.13033989440187652
511.5791211485921,0.13176507898673775
512.2143761277039,0.13322886785087562
512.8830178964745,0.1348105075730715
513.5181822828308,0.13635080078926853
514.1533025412755,0.13792666136447365
514.8218025139868,0.13962235681390167
515.4568322084924,0.1412666235526167
516.0918177891217,0.1429414809574661
516.7601760108737,0.1447351581193593
517.3950710563695,0.14646569933345355
518.029922002017,0.14821923182166552
518.6981385178879,0.15008635817509383
519.3328989571928,0.1518765652145542
519.9676153106775,0.15367861584449902
520.6356901657309,0.15558324595475737
521.2703160416495,0.15739463388646172
521.9048978457649,0.15920217862205827
522.5728310850463,0.16109383458461124
523.2073224403612,0.16287332977024366
523.8417697378827,0.16462823778115498
524.5095614064157,0.16644036294165684
525.1439182838949,0.168119935289821
525.778231117587,0.1697500268650452
526.4124999120795,0.1713220616060241
527.0801037027704,0.17290476590460546
527.7142821153757,0.1743312851483584
528.3484165027767,0.17567489062916342
529.0158788274384,0.1769920110740806
529.6499228616813,0.17814472419088087
530.2839228847115,0.17919658390819293
530.9512437883131,0.18019116302986993
531.5851534868925,0.18102706379770228
532.2190191882546,0.18175650063225288
532.8861987157288,0.18241070203421633
533.5199741213473,0.18292710537079834
534.1537055437184,0.18334526128930065
534.8207437399906,0.18368504903722987
535.4543848953108,0.18391893971276949
536.0879820813607,0.1840731949542366
536.7548789913271,0.1841575940674421
537.3883859390007,0.18417158062747668
538.0218489313738,0.1841287620734037
538.6886045999308,0.18403043534360847
539.3219773825913,0.1838938028638237
539.9553062239138,0.1837217918419171
540.6219206959177,0.18350920496759862
541.2551593561839,0.18328306788692386
541.8883540890674,0.18303838391967167
542.5548274093708,0.1827655319663553
543.1879319898399,0.18249569245876215
543.8209926568743,0.18221871615683113
544.4873248703007,0.1819223381480795
545.1202954135515,0.18163841956242638
545.7532220573121,0.18135390198110626
546.4194132086741,0.18105513206287877
547.0522497572674,0.1807728889498894
547.6850424203112,0.1804927198734313
548.3510925543924,0.18020026571650088
548.9837951508744,0.17992468596867522
549.6164538757366,0.17965095751830884
550.2823630373132,0.17936419759845518
550.9149317242081,0.1790922749307788
551.5474565534096,0.17881986614967812
552.2132247872287,0.17853136377485082
552.8456596070464,0.17825429983283983
553.4780505830931,0.17797291559080478
554.1436779338874,0.1776704136151387
554.7759789291158,0.17737539437313773
555.4082360944885,0.17707125048064354
556.0737226069723,0.17673937049973812
556.7058898200812,0.17641112928818276
557.3380132172497,0.1760684811033012
558.0033589361192,0.17569030765849503
558.6353924095638,0.17531261407087087
559.2673820809723,0.17491523310268484
559.9325870509019,0.1744738543024382
560.5644868271193,0.17403096097000706
561.1963428151976,0.17356355867828743
561.8614070808471,0.17304353038670375
562.493173202256,0.17252152000431575
563.124895549412,0.17197103986114368
563.7898191554195,0.17135967247308487
564.4214516644206,0.17074759721435484
565.053040413055,0.1701042605200523
565.6845854058702,0.1694290369613185
566.3493223430087,0.16868330589279404
566.9807775354966,0.1679413052922206
567.6121889860442,0.16716643813561985
568.2767853673577,0.16631526551086342
568.9081070460561,0.16547304385957246
569.5393849966895,0.16459835775508555
570.2038408667613,0.16364302016677104
570.8350290740127,0.16270313500491115
571.4661735670597,0.16173244379620821
572.1304889704443,0.16067824331070563
572.7615437485692,0.1596468792846703
573.3925548263542,0.15858740493835619
574.0567298075875,0.1574429704259898
574.6876511988885,0.15632920686223784
575.3185289037065,0.15519079405782057
575.9825635073103,0.1539672122640276
576.6133515540787,0.15278217159733118
577.2440959282103,0.15157642377140182
577.9079901986806,0.15028632969113165
578.5386449431826,0.14904232460736871
579.1692560288902,0.1477817721099244
579.8330100107123,0.14643850549717
580.4635314951993,0.1451482757451842
581.0940093347308,0.14384565586332138
581.7576230723644,0.14246255514386247
582.3880113390696,0.14113864948334828
583.0183559746511,0.13980634201713943
583.6818295125377,0.13839620931960087
584.31208460368,0.1370505336539141
584.9422960775155,0.13570016323435263
585.6056294600858,0.1342749027203518
586.2357514178584,0.1329184284563113
586.8658297721449,0.13156062092778503
587.5290230438004,0.1301310310164844
588.1590119103821,0.12877364057215587
588.7889571872984,0.12741790686742974
589.452010392426,0.12599359564638762
590.081866209981,0.12464403423002052
590.7116784516729,0.12329874997811661
591.3745916346415,0.12188814014704767
592.0043144453157,0.12055404221654539
592.6339936939257,0.1192264923415047
593.2967668990932,0.11783688466055303
593.9263567450034,0.11652484715685857
594.5559030426521,0.11522130930996363
595.2185363143399,0.11385897906795042
595.8479932376067,0.11257465924884338
596.4774066263963,0.11130050592104529
597.139900008915,0.10997081338321925
597.7692240516226,0.1087190351894665
598.3985045736445,0.10747884033227652
599.0608581112901,0.10618634219820886
599.6900493155117,0.10497120056990782
600.3191970128246,0.10376884171842911
600.9814107498714,0.10251739567628612
601.6104691576656,0.10134235265878468
602.2394840723209,0.10018110359092919
602.9015580530286,0.09897396189727692
603.5304837064286,0.09784193164458896
604.1593658804595,0.0967245435205505
604.8213001490622,0.09556443422846735
605.4500930900904,0.09447785624069387
606.0788425655082,0.09340662709527596
606.7075485798232,0.09235095069604969
607.3692974368823,0.09125672460072735
607.997914255684,0.09023355821567337
608.626487627138,0.08922649113356584
609.2880968749887,0.08818398438857074
609.9165810791528,0.08721044015794259
610.5450218497172,0.0862534385478088
611.2064915325354,0.0852640771980372
611.8348431640225,0.08434141279424859
612.4631513756503,0.08343564380087114
613.1244815375903,0.0825005628260796
613.7527006383461,0.0816297714178125
614.3808763329762,0.08077614895823332
615.0420670181775,0.07989622856057903
615.6701536301225,0.07907807213051742
616.2981968496752,0.07827728922505284
616.9592481022555,0.07745318793412725
617.5872022673029,0.07668822796758895
618.2151130536804,0.07594078679290824
618.8760249177394,0.0751729725165165
619.5038466777769,0.07446159903136712
620.1316250728596,0.07376783956785715
620.7923975924859,0.07305661940254896
621.420086989383,0.07239907899710794
622.0477330350404,0.07175920685616945
622.7083662542937,0.07110475617919963
623.3359233299052,0.07050117950742109
623.9634370679887,0.06991529326781183
624.6239310309138,0.06931768437473473
625.2513558270766,0.06876811322608999
625.8787372994157,0.06823623138933009
626.5390920500431,0.06769546172507712
627.1663846085794,0.06719987569441081
627.7936338569816,0.06672196319034272
628.4538494393164,0.06623798304735973
629.0810098020265,0.06579632562782262
629.708126868296,0.065372319661946
630.3682033263249,0.06494505908562044
630.995231534991,0.06455726290356151
631.6222164609026,0.06418709783544932
632.2821538385979,0.06381649238171978
632.9090499349913,0.06348250321319628
633.5359027623053,0.06316613408661753
634.1957011036211,0.06285214901556738
634.8224651294877,0.06257194817626212
635.4491858999463,0.06230937248335445
636.1088452488184,0.06205202494199013
636.7354772458893,0.06182564962215381
637.3620660012202,0.06161692687212402
638.021586401559,0.061416305615722686
638.6480864115474,0.06124386673596835
639.2745431934563,0.06108913541022684
639.9339246891614,0.06094541763109185
640.5602927537657,0.060827114820087916
641.1866176039475,0.06072660632723184
641.8458602388964,0.06064007119935049
642.4720963997934,0.06057620453793884
643.0982893599139,0.06053025383086209
643.7573931779698,0.06050129243584836
644.3834974768215,0.06049227067113141
645.0095585885429,0.06050132325210122
645.6685236335434,0.060530444623401736
646.2944961119902,0.06057678962847985
646.9204254169454,0.06064140474393558
