Raman Shift (cm-1),Fitted Intensity
307.71441355443676,0.01532227684748212
308.36391220437145,0.015387185391786658
309.01336522421843,0.015452709810175443
309.6969506915775,0.01552235904099253
310.34631006473137,0.015589178611666922
310.99562382247314,0.015656644606392177
311.6790627139999,0.01572837118730396
312.32828285516734,0.015797196706350797
312.9774573955983,0.015866700834961573
313.6607497584264,0.01594060819521525
314.30983071238734,0.016011539642287832
314.9588660802692,0.016083183583199153
315.64201196152135,0.016159380610627078
316.29095377302656,0.016232523215693333
316.93985001311376,0.016306413960482668
317.58870068658143,0.01638106491566859
318.27165217367656,0.016460479637964636
318.920409330698,0.016536729681902253
319.5691209357501,0.01661377801668794
320.25192605085977,0.016695758114704733
320.9005441695299,0.016774485644526424
321.54911675086987,0.016854051450308712
322.2317755410477,0.01693872541524089
322.8802546660554,0.017020054493087293
323.52868826836857,0.017102263795901764
324.2112007806463,0.017189766429290935
324.8595409566624,0.017273827171678198
325.5078356246195,0.017358812109281606
326.19020190600713,0.01744928470723367
326.8384031776877,0.017536213457844486
327.486558955934,0.01762411245020562
328.1687790534197,0.017717702980220417
328.81684146540283,0.017807642475240103
329.4648583985654,0.01789860038714735
330.14693235912273,0.017995463656175072
330.7948559560209,0.018088563180834637
331.4427340887123,0.018182731475259055
332.12466195928937,0.01828302928752861
332.7724467857006,0.018379444822459463
333.4201861625079,0.018476981703254382
334.10196799003825,0.018580883006367586
334.74961409053867,0.01868077736230848
335.3972147560344,0.01878184790477926
336.07885058742613,0.018889528922497602
336.7263580065737,0.018993071861852708
337.3738200053085,0.019097848129670227
338.05530988745886,0.019209492479784596
338.70267866978975,0.019316860823479852
339.3500020462998,0.01942552197037907
340.03134602607315,0.019541320765993415
340.67857621611256,0.01965269848404589
341.3257610149085,0.01976543083870459
342.00695913915115,0.019885582771250028
342.6540507814025,0.020001161055424897
343.30109704698043,0.02011815818790119
343.98214936252407,0.020242869590151702
344.62910250146524,0.020362846907068934
345.2760102782995,0.020484309675143086
345.95691683195764,0.020613794562493584
346.60373151205204,0.020738376685530184
347.25050084460236,0.020864513259298098
347.93126168316303,0.020998993347558552
348.57793794885583,0.02112839336588151
349.2245688815601,0.02125941922893606
349.9051840517932,0.021399123926901714
350.55172194750776,0.021533562229981415
351.1982145247821,0.021669700155537656
351.8786840734356,0.021814866530602457
352.52508364358073,0.02195457076657456
353.17143790982664,0.022096050766913546
353.851761883634,0.022246923482030685
354.4980231725931,0.02239212848829688
355.1442391721903,0.022539187735932314
355.8244176178596,0.022696018956256187
356.47054067000136,0.02284696666077146
357.116618447315,0.022999849379802012
357.796651411536,0.02316289864741467
358.4426362712111,0.023319837939149657
359.0885758705808,0.023478795265307023
359.73447021440006,0.02363979830077237
360.4143101115624,0.023811515907635587
361.06011157731336,0.023976805715630132
361.7058678020294,0.024144227140636697
362.3855623263371,0.024322794517796717
363.03122570277264,0.024494681214632937
363.6768438526851,0.024668787525219425
364.3563930507662,0.024854487421734846
365.00191838217506,0.02503324170479028
365.64739850156184,0.025214305600264265
366.3268024200188,0.025407427196523204
366.97218975066426,0.02559332577528594
367.6175318837886,0.025781625867846734
368.29679056920577,0.025982464456705025
368.94203994333657,0.026175789737217566
369.58724413443633,0.026371610223990084
370.26635763338345,0.026580466852057855
370.9114690952265,0.026781506583240407
371.5565353885286,0.02698513687996819
372.2355037475427,0.02720231794829084
372.88047734131396,0.0274113648295
373.52540578101616,0.027623099165281023
374.20422904662337,0.027848915988865335
374.8490648165134,0.02806626723819485
375.49385544680626,0.028286404210863023
376.1725336655036,0.028521172536647856
376.81723165568474,0.028747129419693672
377.4618845207333,0.028975971511591807
378.14041773901045,0.029220010994719034
378.78497799363686,0.029454878313706127
379.429493137588,0.02969273136784561
380.10788140190925,0.02994636500625126
380.75230396511324,0.03019045054963885
381.3966814320993,0.030437623206423108
382.0749247889071,0.030701176734042924
382.7192097048028,0.03095479068694614
383.3634495389306,0.031211593781860638
384.0415480346528,0.03148539502095291
384.6856953473434,0.03174884933693967
385.32979759270165,0.032015595259855305
386.0077512737407,0.032299973433182
386.6517610273004,0.032573581168222926
387.29572572796314,0.03285058318517116
387.97353464070693,0.03314586818904721
388.61740687919155,0.03342994279866377
389.2612340792148,0.03371751433718161
389.9388982700257,0.03402403597661543
390.58263303748026,0.034318890577470576
391.22632278089804,0.03461734447685076
391.9038422961203,0.03493543166427676
392.547439636568,0.03524137826168824
393.190991967389,0.035551025989695985
393.86836685335584,0.03588100590901556
394.51182681079445,0.03619835459211403
395.1552417730236,0.0365195054299664
395.832472076032,0.03686170266783376
396.47579469444827,0.03719076077429825
397.1190723320615,0.037523720971864676
397.7961580983974,0.037878456618427356
398.43934342176,0.03821952787090566
399.08248377871496,0.03856459977435839
399.7594250546499,0.03893219049578343
400.4024731269019,0.03928557411231628
401.04547624713814,0.0396430552665725
401.6884344200698,0.0400046652824256
402.3651839439881,0.04038980213284055
403.0080498714269,0.0407599843613166
403.6508708659494,0.04113438964645997
404.3274760070817,0.04153309614036236
404.9702047856299,0.041916264604678115
405.6128886456281,0.04230374793093943
406.2893494501732,0.04271631902753162
406.931941123712,0.0431127512698752
407.5744878930782,0.043513587472661416
408.2508044072092,0.04394030943291442
408.89325901960547,0.04435027440385388
409.53566874219905,0.044764729405762975
410.211841012082,0.04520587876049544
410.8541586071806,0.045629635834973405
411.4964313268356,0.04605796565852145
412.17245939861095,0.046513808165926145
412.81464002024586,0.04695160615016029
413.4567757807854,0.0473940559222699
414.13265970057546,0.04786484551769143
414.7747033925516,0.04831692164952845
415.41670223778056,0.04877372460028236
416.09244205168943,0.04925970234081422
416.73434885779716,0.04972628128596458
417.37621083150225,0.050197657743950234
418.0518065856122,0.05069905075018634
418.6935765496237,0.05118034359642302
419.33530169556616,0.051666499982667966
420.01075343593766,0.05218352037960414
420.6523866016105,0.05267972363070368
421.2939749635407,0.05318085145284847
421.9692827362196,0.05371369531148862
422.6107791472823,0.054224989882207
423.2522307689287,0.0547412647300226
423.92739461993915,0.05529011101067933
424.5687543201093,0.0558166612235602
425.21006924518224,0.05634824176639354
425.8850892205264,0.05691325126404844
426.5263122535034,0.05745520384811468
427.1674905256914,0.05800223083409783
427.842366671357,0.058583545125389484
428.48345308081844,0.05914102821605141
429.124494743799,0.059703623472120604
429.79922710574465,0.06030136386259061
430.4401769353535,0.06087448600117953
431.0810820327788,0.06145275143194435
431.75567065695213,0.062067017901191394
432.39648395034965,0.06265586703145344
433.03725252585355,0.06324988361394068
433.71169745818406,0.06388075375503952
434.3523742589896,0.0644853962127797
434.9930063561915,0.06509522298278281
435.6673076425832,0.06574275093104623
436.30784799440517,0.06636323042176885
436.94834365689894,0.0669889034461651
437.6225013432377,0.06765311879081809
438.26290528966274,0.06828945534869577
438.90326456103503,0.06893098667661979
439.57727869318114,0.0696118933472536
440.2175462777777,0.07026408226719627
440.85776920158605,0.07092145885117683
441.53163982539263,0.07161903396910495
442.1717710917037,0.072287044701873
442.81185771149467,0.07296022727836962
443.4518996894294,0.07363857455583073
444.1255798643506,0.07435819495940926
444.7655302236417,0.07504711687608367
445.40543595533745,0.07574117549659858
446.0789727285555,0.07647730048259031
446.718786870857,0.07718186645773992
447.35855639980946,0.07789153147747346
448.03194981711204,0.0786440399804228
448.67162778590864,0.07936412477768566
449.3112611555989,0.08008926084245262
449.9845112627445,0.08085799928066688
450.62405310151007,0.08159344628005692
451.26355035539746,0.08233388615784888
451.9366571981336,0.08311866684454927
452.5760629503129,0.08386928648850434
453.21542413184943,0.08462482946965273
453.8883877558983,0.08542542887644264
454.5276574649215,0.08619099696753343
455.16688261753006,0.08696140710832481
455.83970306859555,0.08777756395492002
456.47883677788195,0.08855781977968781
457.11792594496364,0.08934282396339033
457.79060326873514,0.09017423710543972
458.4296010216749,0.09096888135702341
459.0685542466272,0.09176816714444569
459.74108848876494,0.09261449322956163
460.3799503287337,0.09342318570035145
461.01876765492125,0.09423639894063568
461.69115886107465,0.0950972498015682
462.3298848314371,0.09591960681598138
462.96856630221373,0.09674634898769655
463.64081451800666,0.09762128874079937
464.27940466209475,0.09845688029793465
464.91795032079244,0.09929670555019832
465.5900555918379,0.10018524736767791
466.2285099529763,0.10103359396421051
466.86691984291247,0.10188600582855913
467.5388822147943,0.10278760835409703
468.1772008362859,0.10364817745916127
468.8154750007525,0.10451262520478656
469.48729451904,0.10542668858489133
470.1254774441695,0.106298890741853
470.7636159264475,0.10717476535041304
471.4352926366919,0.10810062685797164
472.0733399087185,0.10898381139253414
472.7113427520708,0.10987044113390695
473.38287669979763,0.11080737036676644
474.0207883619769,0.11170082068763315
474.65865560964085,0.1125974662855022
475.33004684036496,0.11354465993159965
475.9678229359197,0.11444758841883418
476.60555463111814,0.11535343780494611
477.27680319033243,0.11631001397686405
477.9144437624782,0.11722155646521315
478.55203994841577,0.11813571913393765
479.2231458815877,0.11910071129053232
479.86065097351093,0.12001992116971892
480.4981116933777,0.12094142216076473
481.1690750459602,0.12191377265172355
481.8064447008437,0.12283961462454589
482.4437699978007,0.12376738818139518
483.11459081522844,0.12474594147269845
483.7518250762223,0.12567728503386721
484.3890149934232,0.12661016800928446
485.0261605714659,0.12754445445722906
485.69679223135245,0.12852927639930625
486.3338468119291,0.12946600150683704
486.9708570674702,0.13040369115158137
487.64134629787804,0.1313916078619396
488.2782655849405,0.13233079690429939
488.9151405610901,0.13327047376196824
489.5854874073884,0.1342599531360752
490.22227144403223,0.13520011037687651
490.85901118387847,0.13614023881780876
491.5292156914147,0.13712962058217434
492.1658645207208,0.13806912646635702
492.8024690673301,0.1390080451013564
493.4725312814371,0.13999553458791003
494.1090449464573,0.14093264005756173
494.74551434288514,0.14186855630959322
495.41543430887396,0.14285221905380058
496.0518128526528,0.14378504074847315
496.6881471419292,0.1447160264125708
497.3579249050963,0.14569378390880103
497.9941683706493,0.14662030058070932
498.630367595797,0.14754428871568998
499.3000032014097,0.1485139157049219
499.93611163174137,0.14943196621782592
500.5721758357504,0.15034674974966658
501.2416693290652,0.15130587345090868
501.87764276716916,0.15221315676312033
502.51357199301856,0.15311638920913262
503.18292341926644,0.154062490932826
503.8187619081,0.15495656848682723
504.4545561987579,0.1558457672274062
505.12376560315533,0.1567761868231778
505.7594691856684,0.15765448777255353
506.39512858407033,0.15852704030001202
507.0641960118155,0.15943898388736127
507.69976473093993,0.1602988135814726
508.33528928001033,0.16115198713866974
509.0042147762797,0.16204253854356576
509.63964867492905,0.16288109065823275
510.27503841757425,0.16371204563896954
510.94382202752604,0.1645781819073864
511.5791211485921,0.16539255455124757
512.2143761277039,0.16619836196678825
512.8830178964745,0.16703697324452862
513.5181822828308,0.16782418928317921
514.1533025412755,0.16860185250162216
514.8218025139868,0.16940976645627648
515.4568322084924,0.1701667981780341
516.0918177891217,0.17091327901504835
516.7601760108737,0.17168728983010978
517.3950710563695,0.17241108792879578
518.029922002017,0.1731233370102689
518.6981385178879,0.1738602388055651
519.3328989571928,0.1745477654798637
519.9676153106775,0.1752227566133528
520.6356901657309,0.17591938094479773
521.2703160416495,0.1765676467161979
521.9048978457649,0.17720241480509313
522.5728310850463,0.17785567167846675
523.2073224403612,0.17846177531915033
523.8417697378827,0.1790534571410219
524.5095614064157,0.1796603787502541
525.1439182838949,0.18022154950022914
525.778231117587,0.180767426461075
526.4124999120795,0.18129773775056898
527.0801037027704,0.181838853698088
527.7142821153757,0.18233639548181468
528.3484165027767,0.18281759097931163
529.0158788274384,0.18330619176693994
529.6499228616813,0.18375309963996478
530.2839228847115,0.1841829656451258
530.9512437883131,0.1846168177440056
531.5851534868925,0.18501106616359034
532.2190191882546,0.1853876751921489
532.8861987157288,0.1857648600045976
533.5199741213473,0.18610473513017112
534.1537055437184,0.1864264831077198
534.8207437399906,0.18674543453486192
535.4543848953108,0.18702956826399528
536.0879820813607,0.18729520681084763
536.7548789913271,0.18755474319925017
537.3883859390007,0.18778214144971975
538.0218489313738,0.18799080402760468
538.6886045999308,0.18819015326334773
539.3219773825913,0.18836021739848818
539.9553062239138,0.18851143828956446
540.6219206959177,0.18865025504277616
541.2551593561839,0.1887627955824069
541.8883540890674,0.18885652093599511
542.5548274093708,0.1889348953576467
543.1879319898399,0.1889901374173898
543.8209926568743,0.18902672791476585
544.4873248703007,0.1890451854320588
545.1202954135515,0.18904376567135384
545.7532220573121,0.18902399070379333
546.4194132086741,0.18898348292875472
547.0522497572674,0.18892643813998738
547.6850424203112,0.18885146174701664
548.3510925543924,0.18875334887999995
548.9837951508744,0.18864209669427498
549.6164538757366,0.18851345584418802
550.2823630373132,0.18835948129544372
550.9149317242081,0.18819579379184465
551.5474565534096,0.18801536988294643
552.2132247872287,0.18780762812918006
552.8456596070464,0.1875935993941917
553.4780505830931,0.1873635840947123
554.1436779338874,0.18710448301609128
554.7759789291158,0.18684249189342944
555.4082360944885,0.1865653486076902
556.0737226069723,0.1862575677027077
556.7058898200812,0.18595023709232109
557.3380132172497,0.18562865943385526
558.0033589361192,0.18527510538004083
558.6353924095638,0.1849252594862605
559.2673820809723,0.18456212815505443
559.9325870509019,0.18416588917474283
560.5644868271193,0.183776510071278
561.1963428151976,0.18337484947765342
561.8614070808471,0.1829391498876633
562.493173202256,0.18251333467040218
563.124895549412,0.1820762705329072
563.7898191554195,0.18160442671743557
564.4214516644206,0.1811453463676676
565.053040413055,0.1806760653502505
565.6845854058702,0.1801969284268578
566.3493223430087,0.17968230510844116
566.9807775354966,0.1791840173687171
567.6121889860442,0.17867692460845983
568.2767853673577,0.1781340069142179
568.9081070460561,0.1776099122250634
569.5393849966895,0.17707805330212661
570.2038408667613,0.17651018451568018
570.8350290740127,0.17596344241124365
571.4661735670597,0.17540995790403036
572.1304889704443,0.1748204205713833
572.7615437485692,0.17425412476778082
573.3925548263542,0.1736820820030807
574.0567298075875,0.17307407404477188
574.6876511988885,0.17249123120462584
575.3185289037065,0.17190360443323757
575.9825635073103,0.171280219785261
576.6133515540787,0.17068373254026373
577.2440959282103,0.17008338731373146
577.9079901986806,0.16944760091568165
578.5386449431826,0.16884025493595275
579.1692560288902,0.16822993643877793
579.8330100107123,0.16758459327695796
580.4635314951993,0.1669690480809901
581.0940093347308,0.16635137308754144
581.7576230723644,0.16569918092175145
582.3880113390696,0.16507796405532718
583.0183559746511,0.16445541612434467
583.6818295125377,0.16379894147713103
584.31208460368,0.16317444565083467
584.9422960775155,0.16254937313971188
585.6056294600858,0.161891040102851
586.2357514178584,0.16126552286232362
586.8658297721449,0.1606401393345559
587.5290230438004,0.15998223074503282
588.1590119103821,0.1593578162516048
588.7889571872984,0.15873420285970388
589.452010392426,0.15807886341194785
590.081866209981,0.15745754592973282
590.7116784516729,0.15683765537819438
591.3745916346415,0.15618689626678214
592.0043144453157,0.1555705449814521
592.6339936939257,0.15495620670623034
593.2967668990932,0.15431191142928954
593.9263567450034,0.1537022762600833
594.5559030426521,0.15309520249912126
595.2185363143399,0.15245913349410656
595.8479932376067,0.1518578516009092
596.4774066263963,0.15125964407118092
597.139900008915,0.15063344989830707
597.7692240516226,0.15004205262758713
598.3985045736445,0.14945420956599414
599.0608581112901,0.14883943239857034
599.6900493155117,0.1482593524529469
600.3191970128246,0.14768327581913113
600.9814107498714,0.14708135904206196
601.6104691576656,0.14651393769770665
602.2394840723209,0.14595094037503897
602.9015580530286,0.14536323613200328
603.5304837064286,0.14480973036412964
604.1593658804595,0.14426104323030112
604.8213001490622,0.14368881979572581
605.4500930900904,0.14315040920491856
606.0788425655082,0.14261718797466538
606.7075485798232,0.14208927271472394
607.3692974368823,0.14153943031875796
607.997914255684,0.14102276208851006
608.626487627138,0.14051174208169134
609.2880968749887,0.13998004678289983
609.9165810791528,0.13948095623037937
610.5450218497172,0.1389878369925907
611.2064915325354,0.1384753272001059
611.8348431640225,0.137994782411251
612.4631513756503,0.1375205146920226
613.1244815375903,0.13702817309263587
613.7527006383461,0.13656709100405567
614.3808763329762,0.13611257610269442
615.0420670181775,0.1356413351208924
615.6701536301225,0.1352005865786661
616.2981968496752,0.13476668127925567
616.9592481022555,0.13431742813979922
617.5872022673029,0.13389784258512374
618.2151130536804,0.13348536372353323
618.8760249177394,0.1330589451329921
619.5038466777769,0.13266131493252456
620.1316250728596,0.13227104361513012
620.7923975924859,0.13186827008493557
621.420086989383,0.1314933545287321
622.0477330350404,0.13112604002707343
622.7083662542937,0.13074768986480728
623.3359233299052,0.1303962188582044
623.9634370679887,0.13005258220669605
624.6239310309138,0.12969940520478224
625.2513558270766,0.12937208268246636
625.8787372994157,0.12905282000775253
626.5390920500431,0.1287255408599503
627.1663846085794,0.12842304795118853
627.7936338569816,0.12812883356215135
628.4538494393164,0.12782815503830822
629.0810098020265,0.127551153012132
629.708126868296,0.12728264227909533
630.3682033263249,0.12700924818786327
630.995231534991,0.12675838120604263
631.6222164609026,0.12651621325661425
632.2821538385979,0.1262707712244699
632.9090499349913,0.1260466689286409
633.5359027623053,0.12583146918592644
634.1957011036211,0.12561463327895048
634.8224651294877,0.12541791323635818
635.4491858999463,0.12523029582333414
636.1088452488184,0.12504270903597342
636.7354772458893,0.12487397906606283
637.3620660012202,0.12471454909757784
638.021586401559,0.12455684573015358
638.6480864115474,0.12441670613186688
639.2745431934563,0.12428606191329947
639.9339246891614,0.12415886985737638
640.5602927537657,0.1240479155544508
641.1866176039475,0.1239466507034658
641.8458602388964,0.12385059365148217
642.4720963997934,0.12376941627043177
643.0982893599139,0.12369812177565345
643.7573931779698,0.12363382136839214
644.3834974768215,0.12358301126118004
645.0095585885429,0.12354227748890409
645.6685236335434,0.12351035541158072
