Raman Shift (cm-1),Fitted Intensity
171.300781,0.03905926956189837
173.222656,0.0420760263502825
175.146484,0.0454959391819232
177.068359,0.04936224796909422
178.990234,0.05372724391798911
180.910156,0.05862973392551088
182.832031,0.06411384371376908
184.751953,0.07018673696520614
186.671875,0.07684967841285711
188.591797,0.08406983287345215
190.511719,0.09177982117381953
192.429688,0.09986540719885909
194.347656,0.10818920370523528
196.265625,0.11656933096776832
198.183594,0.12479375555026839
200.099609,0.13262361850699134
202.015625,0.1398325702722384
203.933594,0.14620446203727996
205.847656,0.15152974773286085
207.763672,0.1556819247453063
209.677734,0.15856848921377423
211.59375,0.16017941044435122
213.507812,0.16056547656085804
215.419922,0.15984953850410322
217.333984,0.15820404895013052
219.246094,0.15584569601649564
221.158203,0.15300842800668102
223.070312,0.14993131929001832
224.982422,0.14684060672599245
226.892578,0.14393873798590018
228.802734,0.14138524796041607
230.712891,0.13930108481776823
232.623047,0.13776400402155334
234.533203,0.13681056293436794
236.441406,0.13644073779348156
238.349609,0.1366226470510965
240.257812,0.13730189160604114
242.166016,0.13840687919036365
244.072266,0.139853206932792
245.980469,0.14155509928487287
247.886719,0.14341857874308872
249.791016,0.14535420341549715
251.697266,0.14728067671204928
253.601562,0.1491143608653087
255.507812,0.1507859237518023
257.412109,0.15222650589124803
259.314453,0.15337968145712752
261.21875,0.15419921794252972
263.121094,0.15464372542864444
265.023438,0.1546835106833029
266.925781,0.1542968414120604
268.828125,0.1534708619667583
270.728516,0.15220288960290035
272.628906,0.15049634530643105
274.529297,0.14836299889616272
276.429688,0.1458217160240271
278.330078,0.142897700186267
280.228516,0.13962516515471038
282.126953,0.13603641434123728
284.025391,0.1321700968512085
285.923828,0.12806740066862682
287.822266,0.12377103254181071
289.71875,0.11932890086353581
291.615234,0.11477945335003231
293.511719,0.1101642809395315
295.40625,0.10552784744041788
297.302734,0.10089770702933759
299.197266,0.0963174353233069
301.091797,0.09181287567206269
302.986328,0.08741099970038693
304.878906,0.08313933743014881
306.773438,0.07900844097146387
308.666016,0.07504244349395259
310.558594,0.07124902502813964
312.449219,0.0676404726409302
314.341797,0.06421488643119373
316.232422,0.06098209853660683
318.123047,0.05793877911143909
320.013672,0.05508310897895255
321.904297,0.05241148192942896
323.792969,0.04992131337388139
325.681641,0.047603543331227724
327.570312,0.04545109692149529
329.458984,0.04345628084339548
331.347656,0.04161101600367228
333.234375,0.03990872060333053
335.121094,0.03833913531847724
337.007812,0.03689409521600173
338.894531,0.03556565332099508
340.779297,0.03434738019925239
342.664062,0.03323059773742813
344.548828,0.032208476730865666
346.433594,0.03127463711287751
348.318359,0.03042316380565635
350.201172,0.02964937762392175
352.085938,0.02894670724498237
353.96875,0.02831211419165471
355.849609,0.027741357567219547
357.732422,0.027229658925756448
359.613281,0.026774919212073277
361.494141,0.02637383192369028
363.375,0.026024054474170673
365.255859,0.025723636620574832
367.134766,0.025471253730969166
369.015625,0.02526520623141188
370.894531,0.02510513805403551
372.773438,0.024990428211938198
374.650391,0.024921160713675183
376.529297,0.024897672607985658
378.40625,0.024920977528325398
380.283203,0.024992527519888025
382.160156,0.025114428339915507
384.035156,0.025289269511162504
385.912109,0.025521020592641976
387.787109,0.025813748261789685
389.662109,0.02617333257800543
391.537109,0.02660678071255762
393.410156,0.027122109460388344
395.283203,0.02773018517768179
397.15625,0.028443666277856043
399.029297,0.029277748927873957
400.902344,0.030250474510234996
402.773438,0.0313816789615037
404.646484,0.03269792383908262
406.517578,0.034223500364008064
408.388672,0.0359888884215896
410.257812,0.03802196614589875
412.128906,0.0403560878841976
413.998047,0.04301163526831187
415.867188,0.046008712103574496
417.736328,0.049353465224448355
419.603516,0.05303171388176118
421.470703,0.05701590367396514
423.339844,0.06125536273467762
425.207031,0.0656595719032577
427.072266,0.07012059569118743
428.939453,0.07451764005770681
430.804688,0.07869547348035165
432.669922,0.08250624273736744
434.535156,0.08580253919200609
436.400391,0.08845473342446271
438.263672,0.0903615225195338
440.126953,0.09146637086240685
441.990234,0.09175567943706872
443.853516,0.09126379799700857
445.716797,0.0900701542373832
447.578125,0.08829419228747665
449.439453,0.08607934117770007
451.300781,0.08358515744978909
453.162109,0.08097414712202253
455.023438,0.07840080948283992
456.882812,0.0760055000977895
458.742188,0.07390108024645284
460.601562,0.07217894202178887
462.460938,0.07090674985624523
464.318359,0.07013169586360343
466.177734,0.06988188865731197
468.035156,0.07017550854644575
469.892578,0.07102245220884953
471.748047,0.07242857961440137
473.605469,0.07440534232585845
475.460938,0.0769607100617212
477.316406,0.08011411506612769
479.171875,0.08388980461269234
481.025391,0.08831386452593248
482.880859,0.09343311073652243
484.734375,0.09927953113368586
486.587891,0.10590444798277662
488.441406,0.11335539802380751
490.292969,0.1216689564950396
492.146484,0.13090314446383025
493.998047,0.14106960260796653
495.849609,0.15219480450365055
497.701172,0.16427747273464047
499.550781,0.17727887506070145
501.402344,0.19117445446329073
503.251953,0.20585182280372563
505.101562,0.22120866023318786
506.949219,0.23707700984516547
508.798828,0.2533061580089223
510.646484,0.2696476751943904
512.494141,0.2858798980953865
514.341797,0.30174719113634074
516.189453,0.316986694044111
518.035156,0.33132489707049484
519.880859,0.3445362057608807
521.728516,0.35641838501320855
523.572266,0.366761306265046
525.417969,0.3754742803263372
527.261719,0.38246855692019777
529.107422,0.38774766076292544
530.951172,0.39134814531740464
532.792969,0.39337797050050377
534.636719,0.3939918801920565
536.478516,0.3933760165967977
538.322266,0.39174130364394705
540.164062,0.3893135244012041
542.003906,0.3863129546330282
543.845703,0.38293347155096247
545.685547,0.3793526927524571
547.525391,0.3756986793234322
549.365234,0.3720579125852329
551.205078,0.3684691304229384
553.044922,0.3649241095565839
554.882812,0.36137552452912886
556.720703,0.357732748314274
558.558594,0.3538821405385933
560.396484,0.3496937395619162
562.232422,0.3450375924975671
564.068359,0.3397803089898658
565.90625,0.33380147634384477
567.740234,0.3270315988140533
569.576172,0.31939069292653866
571.412109,0.31085998453759367
573.246094,0.3014600805388344
575.080078,0.29122733205639606
576.914062,0.28023865167771417
578.746094,0.2686110811887877
580.580078,0.25644568906835785
582.412109,0.24390903794405244
584.244141,0.23113709228688759
586.076172,0.21828000868151748
587.90625,0.20549686555467392
589.738281,0.19289595575277907
591.568359,0.180625595167665
593.398438,0.1687766882740237
595.228516,0.15743509234351563
597.056641,0.14667853243611892
598.886719,0.13653160593529778
600.714844,0.12704571059892542
602.542969,0.11822337200370933
604.371094,0.11006441083484414
606.197266,0.10256482230244722
608.025391,0.09568783143414086
609.851562,0.08942074195637492
611.677734,0.08372401443181444
613.503906,0.07856329259978885
615.328125,0.07390816570951461
617.152344,0.06971850468768906
618.978516,0.06595812652576016
620.800781,0.06260907773812167
622.625,0.05963459999992902
624.449219,0.05701812260826955
626.271484,0.054747618305233926
628.09375,0.052813370418978975
629.916016,0.051218238331324654
631.738281,0.04997785272360934
633.558594,0.049126361022081434
635.380859,0.0487212003329064
637.201172,0.04886047578668728
639.021484,0.04969555630391483
640.839844,0.05144887861051732
642.660156,0.05442793797509672
644.478516,0.058976582818333165
646.296875,0.06539040248581075
648.115234,0.07372050555462109
649.933594,0.08357179559387483
651.75,0.09402090113363204
653.566406,0.10387462927663368
655.382812,0.11214344659667091
657.199219,0.11855993995381912
659.015625,0.12366205917544765
660.830078,0.12824198093015984
662.646484,0.1324956444475537
664.460938,0.13547971801294884
666.275391,0.1355045717811029
668.087891,0.1311884200633153
669.902344,0.12243966132682205
671.714844,0.11069575073245212
673.527344,0.09818219652159248
675.339844,0.08695326784636108
677.150391,0.0782435625848579
678.962891,0.072361685626397
680.773438,0.0690557535734779
682.583984,0.06782814923903989
684.394531,0.06820433323054802
686.205078,0.06982004919840287
688.013672,0.07242411292546995
689.822266,0.07585988530143377
691.630859,0.08002978498012477
693.439453,0.08487447875943441
695.248047,0.09035837666315494
697.054688,0.09645357527251223
698.861328,0.10315352238261213
700.667969,0.11045114116715579
702.474609,0.1183418672611238
704.28125,0.12682191061407724
706.085938,0.1358768153530401
707.890625,0.14550958175796233
709.695312,0.15571208345489
711.5,0.16647329324761234
713.304688,0.17777877407863302
715.107422,0.18959721035063373
716.910156,0.20191828836914125
718.712891,0.21471542872260221
720.515625,0.22795755287280295
722.318359,0.24160904963382487
724.119141,0.2556143857779664
725.919922,0.26994363925726267
727.720703,0.28454807210850946
729.521484,0.29937494675288734
731.322266,0.31436791837645506
733.121094,0.3294510816787091
734.919922,0.3445788502350222
736.71875,0.3596877326547618
738.517578,0.37471348634191887
740.316406,0.38959232937935445
742.113281,0.4042466981290176
743.910156,0.4186353026122211
745.707031,0.4327074095965437
747.503906,0.44642303236118375
749.300781,0.459758828016789
751.095703,0.47270347517640054
752.890625,0.48531528072673125
754.685547,0.4977051508950426
756.480469,0.5100983098547207
758.275391,0.5229195415321114
760.068359,0.5369233023566498
761.861328,0.5534150772073367
763.654297,0.5739744682262697
765.447266,0.5976590800157322
767.240234,0.6139679470912252
769.03125,0.6111356904218836
770.822266,0.5988709054841975
772.613281,0.5898640160951141
774.404297,0.5868881093188422
776.195312,0.5897270750857452
777.984375,0.5991795831071259
779.773438,0.6184685494332277
781.5625,0.6551026045767329
783.351562,0.7244163663499428
785.140625,0.8486770465224436
786.927734,1.000585300848032
788.714844,1.0010023528748724
790.501953,0.8518458873522525
792.289062,0.7382891250700347
794.076172,0.695163651976809
795.861328,0.6997930195370508
797.646484,0.6944291466889744
799.433594,0.6304332584076194
801.216797,0.5552449777096139
803.001953,0.5009414905627775
804.785156,0.4645376002550035
806.570312,0.4389695970522204
808.353516,0.420038042694406
810.136719,0.40546343785383765
811.917969,0.39408030306502173
813.701172,0.38524020164815836
815.482422,0.37862944434239815
817.263672,0.37405787721873773
819.044922,0.3714253023108837
820.824219,0.37066630522051536
822.605469,0.3717211054666869
824.384766,0.37451783031612246
826.164062,0.37896305471607733
827.943359,0.3849311121172584
829.722656,0.3922603254684636
831.5,0.400743122321089
833.279297,0.4101684651275206
835.056641,0.42026157562305366
836.832031,0.4307525419734307
838.609375,0.44139506723520167
840.386719,0.45192055240135276
842.162109,0.4620871099987651
843.9375,0.4717147410823426
845.712891,0.4806598987521815
847.488281,0.48883311972786736
849.261719,0.4961929907309397
851.035156,0.50276794435947
852.810547,0.508628815043549
854.582031,0.5138576217775818
856.355469,0.5185960832679865
858.128906,0.5229715012051549
859.900391,0.5271098898008375
861.671875,0.5311321581591525
863.443359,0.5351312581540569
865.214844,0.5391712505194989
866.984375,0.5432798817608712
868.755859,0.5474669305579113
870.525391,0.5516949378844691
872.294922,0.5559159360370323
874.064453,0.560058978027246
875.832031,0.5640371008860525
877.601562,0.567771670827563
879.369141,0.5711691211873741
881.136719,0.57415686308061
882.904297,0.5766723885268275
884.669922,0.5786711545002458
886.4375,0.5801400217582886
888.203125,0.5810880707096377
889.96875,0.5815639020069454
891.734375,0.5816524660931404
893.498047,0.5814799051642338
895.263672,0.5812126656743756
897.027344,0.5810550938217354
898.791016,0.5812377063488994
900.554688,0.5820006926652048
902.316406,0.583564803991529
904.080078,0.5861050808119279
905.841797,0.5896988890916359
907.603516,0.5943107837086159
909.365234,0.5997657456778973
911.126953,0.6057615330325868
912.886719,0.6119067193104871
914.646484,0.6178211599860236
916.408203,0.6232218195542573
918.166016,0.627999073818923
919.925781,0.6323343119894418
921.685547,0.6366338138734396
923.443359,0.6414503035091282
925.201172,0.647307978701721
926.958984,0.6544668182713717
928.716797,0.6627418044681571
930.472656,0.6714307152160042
932.230469,0.6794739657997796
933.986328,0.685686523614165
935.742188,0.6892006170873337
937.496094,0.6897213785013192
939.251953,0.6875635769767787
941.005859,0.6833270427439305
942.761719,0.6772799983922907
944.515625,0.6687945060324704
946.267578,0.6560819832789351
948.021484,0.6365238106430237
949.773438,0.6077088955147865
951.527344,0.5683484098598541
953.279297,0.5192864988608956
955.029297,0.4633009914009834
956.78125,0.40429251268507516
958.533203,0.3465363706085242
960.283203,0.29350339719546137
962.033203,0.24719435595133835
963.783203,0.20831210086484409
965.53125,0.17655533130516501
967.28125,0.15093427932862338
969.029297,0.1303919634010241
970.777344,0.1138367805025686
972.525391,0.10037816017296486
974.273438,0.08931928035085958
976.019531,0.08014480047139973
977.767578,0.0724453588750638
979.513672,0.06594998482516543
981.259766,0.06043328612099917
983.005859,0.05573053327130419
984.75,0.05171798991928459
986.496094,0.04828572885621835
988.240234,0.045360501636240065
989.984375,0.042872308964963884
991.728516,0.040766856276907425
993.470703,0.03900070555366463
995.214844,0.037531887751081836
996.957031,0.036331542389549075
998.699219,0.03537047327458665
1000.441406,0.03462519482131117
1002.181641,0.0340759791713631
1003.923828,0.03370408587306356
1005.664062,0.033495144062727904
1007.404297,0.03343536870431914
1009.144531,0.033513106327083014
1010.884766,0.03371806762570565
1012.623047,0.03404068443181358
1014.363281,0.03447350658976678
1016.101562,0.035008195354741006
1017.839844,0.035638470911088946
1019.576172,0.03635730206015018
1021.314453,0.03716056266273316
1023.050781,0.03804104399509616
1024.787109,0.03899445417703132
1026.523438,0.040015825669274065
1028.259766,0.04110030942264448
1029.996094,0.042243127234507155
1031.730469,0.043438152351030275
1033.464844,0.04468189209070277
1035.199219,0.045969562160330685
1036.933594,0.04729631802588588
1038.667969,0.048657238643047586
1040.400391,0.05004573588757473
1042.134766,0.051459843897536814
1043.867188,0.052891195589267706
1045.599609,0.05433610240575429
1047.330078,0.05578757531079223
1049.0625,0.057243473603614044
1050.792969,0.05869505023714691
1052.523438,0.060138447628923584
1054.253906,0.061568147981468986
1055.984375,0.06297863989721683
1057.712891,0.06436289000459144
1059.443359,0.06571860101773497
1061.171875,0.06703738028233189
1062.900391,0.06831555668933875
1064.628906,0.06954805104848207
1066.355469,0.07072865058301313
1068.083984,0.07185531875807262
1069.810547,0.07292103910363462
1071.537109,0.07392290305680994
1073.263672,0.07485698163971738
1074.990234,0.07571965176258126
1076.714844,0.0765067768250455
1078.439453,0.07721644758956475
1080.164062,0.07784611267983162
1081.888672,0.07839361156419619
1083.613281,0.07885718901101763
1085.337891,0.07923550965313006
1087.060547,0.07952738352833294
1088.783203,0.07973281631910982
1090.505859,0.07985177298663926
1092.228516,0.07988465523338838
1093.951172,0.07983229871854548
1095.671875,0.0796961688113125
1097.392578,0.07947793125839832
1099.113281,0.07917966851775621
1100.833984,0.0788038537473614
1102.554688,0.07835333308208153
1104.273438,0.07783193845786347
1105.992188,0.0772427184624867
1107.712891,0.07658871938094138
1109.429688,0.07587637470048135
1111.148438,0.0751077059155117
1112.867188,0.07428806436550416
1114.583984,0.07342322383629896
1116.300781,0.07251718761998643
1118.017578,0.07157499068256418
1119.734375,0.07060176221521192
1121.449219,0.06960384315509581
1123.166016,0.06858417776975693
1124.880859,0.06755029499291523
1126.595703,0.06650621624376689
1128.310547,0.06545705265844134
1130.025391,0.06440782489499972
1131.738281,0.06336462197340506
1133.451172,0.062330991399568186
1135.164062,0.06131151285014422
1136.876953,0.06031057535858385
1138.589844,0.05933236123537766
1140.302734,0.0583808259257998
1142.013672,0.057460711765884034
1143.724609,0.056574361886083654
1145.435547,0.05572495001739086
1147.146484,0.0549153738363302
1148.855469,0.0541490936715468
1150.566406,0.053426675889156616
1152.275391,0.0527517874251115
1153.984375,0.05212529864639511
1155.693359,0.051548632852990994
1157.402344,0.051022918662082084
1159.109375,0.05054950587797479
1160.816406,0.05012831311111668
1162.525391,0.04975921826720086
1164.230469,0.049443395322139656
1165.9375,0.049179404405488736
1167.644531,0.04896712008423631
1169.349609,0.04880593920847871
1171.054688,0.048694604056496095
1172.759766,0.048631913158412886
1174.464844,0.04861646196732976
1176.169922,0.04864665713490793
1177.873047,0.048720621734062504
1179.576172,0.048836444184909726
1181.28125,0.0489922612086337
1182.982422,0.04918527988207215
1184.685547,0.049413798058889916
1186.388672,0.049675215690623664
1188.089844,0.049966702054550755
1189.791016,0.050286003710866986
1191.492188,0.05063053800195598
1193.193359,0.0509976899710103
1194.892578,0.05138437387346168
1196.59375,0.05178884831824263
1198.292969,0.052207572128068494
1199.992188,0.05263841815503891
1201.691406,0.05307884587315551
1203.390625,0.05352637059953812
1205.087891,0.05397805302526849
1206.785156,0.05443207366311858
1208.482422,0.05488619325134774
1210.179688,0.05533827203026646
1211.876953,0.055786279738072535
1213.574219,0.05622830459464813
1215.269531,0.0566620640504085
1216.964844,0.05708642014921873
1218.660156,0.057499856796135076
1220.355469,0.05790099802530497
1222.050781,0.05828860879217664
1223.744141,0.05866117760681057
1225.4375,0.05901821478006699
1227.130859,0.05935891968956016
1228.824219,0.05968263313961713
1230.517578,0.05998883442349459
1232.210938,0.060277139358503026
1233.902344,0.06054699370381606
1235.59375,0.060798614963741504
1237.285156,0.06103199853900657
1238.976562,0.061247254863414605
1240.667969,0.06144460315363595
1242.357422,0.061624166668047646
1244.046875,0.06178659823310241
1245.736328,0.061932399852774295
1247.425781,0.06206215378550152
1249.115234,0.06217651534720309
1250.802734,0.06227609871446499
1252.492188,0.06236191382747175
1254.179688,0.06243459234553904
1255.867188,0.062495116153724384
1257.554688,0.0625443991608495
1259.240234,0.0625833489568469
1260.927734,0.0626130297629745
1262.613281,0.06263436775881179
1264.298828,0.06264841418102274
1265.984375,0.06265619413504521
1267.667969,0.0626587419166517
1269.353516,0.06265710308335794
1271.037109,0.06265232242963784
1272.720703,0.06264544055492892
1274.404297,0.0626374957677261
1276.087891,0.06262952251243555
1277.771484,0.06262254984595993
1279.453125,0.06261760441137476
1281.134766,0.06261568885478873
1282.816406,0.06261780671357986
1284.498047,0.06262495328246753
1286.179688,0.06263811558649904
1287.859375,0.06265824474380295
1289.541016,0.06268635801165078
1291.220703,0.06272335201666547
1292.900391,0.06277020952510531
1294.580078,0.062827880175176
1296.257812,0.0628972216791156
1297.9375,0.06297933735265893
1299.615234,0.06307497496340345
1301.292969,0.06318516030515775
1302.970703,0.06331083231487337
1304.646484,0.06345275760555341
1306.324219,0.06361221240086526
1308.0,0.0637897750111985
1309.675781,0.06398657708455645
1311.351562,0.06420358376900305
1313.027344,0.0644417707483994
1314.703125,0.06470212505956645
1316.376953,0.0649853029507062
1318.050781,0.06529260589461076
1319.724609,0.0656250602908458
1321.398438,0.06598370887860064
1323.072266,0.06636961051351978
1324.744141,0.06678334159866622
