Raman Shift (cm-1),Fitted Intensity
171.300781,0.0052201357197895915
173.222656,0.005258657307386987
175.146484,0.005297702779879855
177.068359,0.005337201865014892
178.990234,0.005377203175308757
180.910156,0.00541767473552027
182.832031,0.005458708573920506
184.751953,0.005500231220568327
186.671875,0.0055422942833696165
188.591797,0.005584908203991901
190.511719,0.005628083698877942
192.429688,0.005671786972026044
194.347656,0.005716072892071665
196.265625,0.0057609530675034
198.183594,0.005806439350789147
200.099609,0.005852496651774937
202.015625,0.005899183521689858
203.933594,0.005946561353960032
205.847656,0.0059944975988184745
207.763672,0.00604315160305529
209.677734,0.006092438055019468
211.59375,0.006142471926941754
213.507812,0.006193165902625368
215.419922,0.00624453298606745
217.333984,0.00629669363436582
219.246094,0.006349557475669067
221.158203,0.006403193775123088
223.070312,0.0064576195332827855
224.982422,0.0065128522654009525
226.892578,0.006568852249439573
228.802734,0.006625694029754342
230.712891,0.006683396727420383
232.623047,0.006741979969964783
234.533203,0.006801464096946358
236.441406,0.00686180782624767
238.349609,0.006923093076929113
240.257812,0.006985342112880046
242.166016,0.007048577960626655
244.072266,0.00711275802802563
245.980469,0.00717803838175372
247.886719,0.007244310714155385
249.791016,0.007311597890161002
251.697266,0.007380064960272232
253.601562,0.007449599530580395
255.507812,0.007520373255655768
257.412109,0.007592271022616052
259.314453,0.007665320093514406
261.21875,0.007739702542157009
263.121094,0.007815299014538056
265.023438,0.007892219562188272
266.925781,0.007970499850702884
268.828125,0.008050177023510328
270.728516,0.008131205501360353
272.628906,0.00821370617120365
274.529297,0.008297720540459637
276.429688,0.0083832916348521
278.330078,0.008470464212700026
280.228516,0.00855919285787747
282.126953,0.008649614646352074
284.025391,0.008741780115778612
285.923828,0.008835741754800322
287.822266,0.008931554514471465
289.71875,0.009029174013772163
291.615234,0.00912875751340141
293.511719,0.009230367354663017
295.40625,0.009333960673507299
297.302734,0.009439819200726167
299.197266,0.009547796177262261
301.091797,0.00965807393822576
302.986328,0.009770730731052321
304.878906,0.009885728655269039
306.773438,0.010003391242803536
308.666016,0.010123566210016888
310.558594,0.01024646866153952
312.449219,0.010372067501849542
314.341797,0.010500727704902183
316.232422,0.010632294914843769
318.123047,0.010767017734900899
320.013672,0.010905020306177354
321.904297,0.011046434093278176
323.792969,0.01119124686215278
325.681641,0.01133975044472085
327.570312,0.011492101608853809
329.458984,0.011648467509863224
331.347656,0.011809026135530478
333.234375,0.011973794775958148
335.121094,0.012143140090577417
337.007812,0.012317279358805314
338.894531,0.012496446166887958
340.779297,0.012680697793677947
342.664062,0.012870486853243133
344.548828,0.0130661051739025
346.433594,0.013267868513338256
348.318359,0.013476119721978897
350.201172,0.013691005822965825
352.085938,0.013913379804396202
353.96875,0.014143226098325249
355.849609,0.014381008963951463
357.732422,0.014627760726593003
359.613281,0.014883563961800328
361.494141,0.015149330138191818
363.375,0.015425794702272046
365.255859,0.015713781700146843
367.134766,0.016013899493234045
369.015625,0.01632781880605451
370.894531,0.016656076443480803
372.773438,0.01700034883626399
374.650391,0.01736181083313612
376.529297,0.017743019963543338
378.40625,0.01814528455549888
380.283203,0.018571454876080685
382.160156,0.019024447276036298
384.035156,0.01950722242548975
385.912109,0.020024974198886214
387.787109,0.020581711070985897
389.662109,0.021184196178078853
391.537109,0.021840181630179534
393.410156,0.022558612867357074
395.283203,0.023352450745083277
397.15625,0.024237457243969713
399.029297,0.02523397037811265
400.902344,0.02636832988720852
402.773438,0.027673112393158398
404.646484,0.0291945483219028
406.517578,0.030983879445129835
408.388672,0.0331082651693361
410.257812,0.03563985288023137
412.128906,0.038662302993580075
413.998047,0.042239498696818
415.867188,0.046418604146870525
417.736328,0.051194888158559285
419.603516,0.056484043565192675
421.470703,0.062119124118002016
423.339844,0.06783484014909112
425.207031,0.07326294705296402
427.072266,0.07800343280214225
428.939453,0.08167906494785739
430.804688,0.08397735409515478
432.669922,0.08473903780447646
434.535156,0.08397489540901601
436.400391,0.08186866315305323
438.263672,0.07874435948146828
440.126953,0.07499575930408195
441.990234,0.07102694418302509
443.853516,0.0671931525861527
445.716797,0.0637639540876855
447.578125,0.06091314158859637
449.439453,0.058716993001857704
451.300781,0.057185367347092356
453.162109,0.05628237638657286
455.023438,0.05594895588170245
456.882812,0.05611966175319322
458.742188,0.056734118527086846
460.601562,0.057743404138332094
462.460938,0.059111438685336054
464.318359,0.06081285137895536
466.177734,0.06283931753275858
468.035156,0.06518471802492143
469.892578,0.06785785378766669
471.748047,0.0708698554850694
473.605469,0.0742484074325396
475.460938,0.07801403699507373
477.316406,0.0822036274306013
479.171875,0.0868562997058159
481.025391,0.09201068966433985
482.880859,0.09772674277871678
484.734375,0.10404557248156907
486.587891,0.11102919311200647
488.441406,0.11873585601583507
490.292969,0.12721473804501884
492.146484,0.1365403695292998
493.998047,0.14674522272202534
495.849609,0.15788315853822601
497.701172,0.16998754134269406
499.550781,0.1830622897226511
501.402344,0.197134020108984
503.251953,0.21214858896344235
505.101562,0.22806849528738557
506.949219,0.24479294744503585
508.798828,0.2622411214410792
510.646484,0.28022521927475014
512.494141,0.29857753527005076
514.341797,0.31707901046217507
516.189453,0.3354809701385349
518.035156,0.3534919040247048
519.880859,0.3708429582525475
521.728516,0.38725510852353684
523.572266,0.4023854438016472
525.417969,0.41600588289368146
527.261719,0.4278357424689363
529.107422,0.4376847169125793
530.951172,0.44536353635752257
532.792969,0.45076555676182023
534.636719,0.4538488538895534
536.478516,0.45461655697177666
538.322266,0.4531429058207769
540.164062,0.44956323508536333
542.003906,0.44406966511108636
543.845703,0.43688119764947425
545.685547,0.42827802693073846
547.525391,0.4185409600127888
549.365234,0.4079680971835508
551.205078,0.3968557828056324
553.044922,0.3854871220941003
554.882812,0.374133733068035
556.720703,0.36301063351373897
558.558594,0.35230670724779206
560.396484,0.3421685752374753
562.232422,0.332708377342576
564.068359,0.32397343550191954
565.90625,0.3159724980300389
567.740234,0.30870904872198446
569.576172,0.30210526469713195
571.412109,0.29608921243399305
573.246094,0.2905665419892744
575.080078,0.2854178122935445
576.914062,0.28052391560311263
578.746094,0.27577074414218267
580.580078,0.2710347824303307
582.412109,0.2662234007976556
584.244141,0.2612433696163821
586.076172,0.2560238354731409
587.90625,0.25051917192173484
589.738281,0.24468600512280408
591.568359,0.23852502477522455
593.398438,0.23203726756648108
595.228516,0.2252469063740473
597.056641,0.2182005336939754
598.886719,0.21093405230534729
600.714844,0.20352294261700646
602.542969,0.1960255329161127
604.371094,0.1885109255216041
606.197266,0.18105654244482935
608.025391,0.17371387931695875
609.851562,0.1665619758976719
611.677734,0.15965065417910518
613.503906,0.15303105337209036
615.328125,0.14675361722721186
617.152344,0.14084753349581966
618.978516,0.1353364882030007
620.800781,0.13026042295264445
622.625,0.12561980937944123
624.449219,0.12143368708160925
626.271484,0.11771667470212807
628.09375,0.11447442325241208
629.916016,0.1117193116500258
631.738281,0.10946880760650543
633.558594,0.10775099290077894
635.380859,0.10660293415687816
637.201172,0.10608862811414223
639.021484,0.10629681729723671
640.839844,0.10735317264720141
642.660156,0.1094295939450623
644.478516,0.11273006385436257
646.296875,0.11748230795542157
648.115234,0.12388117953130715
649.933594,0.13200825312593906
651.75,0.14171411872322612
653.566406,0.1525486962740111
655.382812,0.16368639406323776
657.199219,0.17398961627236229
659.015625,0.1821908438601988
660.830078,0.18716764152112764
662.646484,0.18824938694629847
664.460938,0.18538039631016373
666.275391,0.17915239702645516
668.087891,0.17063861859959228
669.902344,0.1610784427008228
671.714844,0.15165896420339062
673.527344,0.1432469031508857
675.339844,0.13635508489609116
677.150391,0.13117058319217345
678.962891,0.1276291407133369
680.773438,0.1255568695819719
682.583984,0.12472520797252676
684.394531,0.12492167308703937
686.205078,0.12597046101597392
688.013672,0.12773628242417165
689.822266,0.13012604765453473
691.630859,0.1330774858022623
693.439453,0.1365525280744227
695.248047,0.14053125459067786
697.054688,0.1450022599300237
698.861328,0.14997360507530644
700.667969,0.15545734926967733
702.474609,0.16147191233679317
704.28125,0.16804087982887422
706.085938,0.17518396866124009
707.890625,0.18293903417006288
709.695312,0.19133978030093488
711.5,0.2004218206700705
713.304688,0.2102219028980423
715.107422,0.22076524100752964
716.910156,0.23209838795665386
718.712891,0.24425605951661974
720.515625,0.2572701887134908
722.318359,0.27116871855359326
724.119141,0.28595769232394624
725.919922,0.30166737956737644
727.720703,0.318305206828506
729.521484,0.33586874945130973
731.322266,0.35434419936012657
733.121094,0.3736833550092013
734.919922,0.39386489115093554
736.71875,0.414832438566194
738.517578,0.43651311568568735
740.316406,0.4588167843059338
742.113281,0.48161063773238033
743.910156,0.5047935324779173
745.707031,0.5282232918109013
747.503906,0.5517415323299532
749.300781,0.5751751059373407
751.095703,0.5983131026923872
752.890625,0.6209854296000306
754.685547,0.6429890902774211
756.480469,0.6641170916922235
758.275391,0.6841621574255207
760.068359,0.7029010567269246
761.861328,0.7201611318734795
763.654297,0.7357592156400604
765.447266,0.7495281855378918
767.240234,0.7613208107519283
769.03125,0.771003926485426
770.822266,0.7784944666671089
772.613281,0.7837243022929956
774.404297,0.7866560446549526
776.195312,0.787284176507418
777.984375,0.7856384878031446
779.773438,0.7817794065619451
781.5625,0.7757961310284989
783.351562,0.7678067740920931
785.140625,0.7579559542080972
786.927734,0.746425325031786
788.714844,0.7333928397642361
790.501953,0.71906264729451
792.289062,0.7036513955557924
794.076172,0.6873842969083526
795.861328,0.6705099677920512
797.646484,0.6532410742370858
799.433594,0.635785955333972
801.216797,0.6184235611704951
803.001953,0.6013097545643238
804.785156,0.584683714877052
806.570312,0.5686982183926413
808.353516,0.5535628356191328
810.136719,0.539418744759713
811.917969,0.5264224421564374
813.701172,0.5146717184337956
815.482422,0.5043017859380271
817.263672,0.4953918622619109
819.044922,0.48801835032328567
820.824219,0.4822469363459729
822.605469,0.47810925166204365
824.384766,0.47564295098684156
826.164062,0.47485564627089594
827.943359,0.47574494479893825
829.722656,0.4782929592575309
831.5,0.4824607109719691
833.279297,0.4882080512997727
835.056641,0.495457109152367
836.832031,0.504121655579255
838.609375,0.5141231560012676
840.386719,0.5253388892435433
842.162109,0.5376248399677076
843.9375,0.5508478057335306
845.712891,0.564848434041539
847.488281,0.5794542497985663
849.261719,0.5944647709528831
851.035156,0.6097034992382708
852.810547,0.6249886422817515
854.582031,0.6400682163173937
856.355469,0.6547912912744824
858.128906,0.6689443323829752
859.900391,0.6823250406586546
861.671875,0.694775022026139
863.443359,0.7061375804731388
865.214844,0.7162780917669289
866.984375,0.7250793419316819
868.755859,0.7324829558636152
870.525391,0.7384288135106892
872.294922,0.7429190301340668
874.064453,0.7459861184250841
875.832031,0.7477024017426059
877.601562,0.7481868553390778
879.369141,0.7475948873961022
881.136719,0.7461240933729927
882.904297,0.7440082595344639
884.669922,0.741517251409298
886.4375,0.7389396535240607
888.203125,0.7365944174074577
889.96875,0.7348015187684585
891.734375,0.7338818669649937
893.498047,0.7341396084451897
895.263672,0.7358490011940768
897.027344,0.7392316365306905
898.791016,0.7444486980035284
900.554688,0.7515788656032311
902.316406,0.7605939412440981
904.080078,0.7713903229959937
905.841797,0.7837090715235471
907.603516,0.7972165425539733
909.365234,0.8114682994289716
911.126953,0.8259394323270337
912.886719,0.8400381506342744
914.646484,0.8531923227210696
916.408203,0.8648582055618153
918.166016,0.8745291367362971
919.925781,0.8819109639351784
921.685547,0.8868600350164189
923.443359,0.8894947314302519
925.201172,0.8902364032933109
926.958984,0.8898184008506562
928.716797,0.8892829235265927
930.472656,0.8899152359024746
932.230469,0.8931082945053821
933.986328,0.9001213186416965
935.742188,0.9117851541384842
937.496094,0.9281142244180438
939.251953,0.9480660690462646
941.005859,0.9692367434010797
942.761719,0.9881201180310792
944.515625,1.0003598518386707
946.267578,1.0016264769319643
948.021484,0.9883838387751426
949.773438,0.9587248579174743
951.527344,0.9127149011394587
953.279297,0.852666510853258
955.029297,0.7824550276600665
956.78125,0.7066157556675163
958.533203,0.6299290249102246
960.283203,0.5564788550206811
962.033203,0.48904430651626885
963.783203,0.42925145682606
965.53125,0.37768093220834803
967.28125,0.3339306343239592
969.029297,0.2973158325020503
970.777344,0.2667801592269374
972.525391,0.24129436916163693
974.273438,0.21991809717872995
976.019531,0.20186926066858324
977.767578,0.18645582986437992
979.513672,0.17319614929229138
981.259766,0.1616681882666103
983.005859,0.15155757764163802
984.75,0.14262815723220262
986.496094,0.1346669846104558
988.240234,0.12753896835759332
989.984375,0.12111220991587072
991.728516,0.11528749613964433
993.470703,0.10998931613050551
995.214844,0.10513877565496337
996.957031,0.10069097770715044
998.699219,0.0965934297343991
1000.441406,0.09280650032444991
1002.181641,0.0893001837862508
1003.923828,0.08603764373162226
1005.664062,0.08300122295794973
1007.404297,0.08016547690202226
1009.144531,0.07751151901156687
1010.884766,0.07502278806509115
1012.623047,0.07268725294497874
1014.363281,0.07048678694728575
1016.101562,0.06841491715325725
1017.839844,0.06645894234890831
1019.576172,0.06461180806811852
1021.314453,0.06286122539458791
1023.050781,0.06120382430036638
1024.787109,0.059631002433774866
1026.523438,0.05813680625002743
1028.259766,0.056715839941690105
1029.996094,0.05536319677622747
1031.730469,0.05407582296818614
1033.464844,0.05284809314568973
1035.199219,0.051676286955901804
1036.933594,0.05055699406150782
1038.667969,0.04948708253249297
1040.400391,0.048464798340954546
1042.134766,0.047485183789664646
1043.867188,0.04654800013425509
1045.599609,0.045649862545443745
1047.330078,0.04478963022457985
1049.0625,0.04396342563541451
1050.792969,0.04317131668295242
1052.523438,0.04241068581607517
1054.253906,0.04167998226559766
1055.984375,0.04097775995579846
1057.712891,0.04030341843994213
1059.443359,0.03965417685316302
1061.171875,0.039030326527027946
1062.900391,0.038430024151423436
1064.628906,0.03785224331306945
1066.355469,0.03729663787005404
1068.083984,0.03676105009961281
1069.810547,0.03624584498700754
1071.537109,0.03574961399822997
1073.263672,0.03527161184880485
1074.990234,0.03481113889306517
1076.714844,0.03436802839928537
1078.439453,0.033941132409039815
1080.164062,0.03352986892084546
1081.888672,0.033133689767110466
1083.613281,0.032752079153027934
1085.337891,0.03238455013000683
1087.060547,0.03203103781621248
1088.783203,0.03169068714998752
1090.505859,0.031363092058502906
1092.228516,0.03104786959691767
1093.951172,0.030744659392717495
1095.671875,0.03045344540121511
1097.392578,0.030173558073075337
1099.113281,0.02990469701314177
1100.833984,0.029646579567559603
1102.554688,0.029398939830133492
1104.273438,0.029161792179229963
1105.992188,0.028934616006795106
1107.712891,0.028716950866259743
1109.429688,0.02850931669178937
1111.148438,0.02831079735208264
1112.867188,0.028121456014076156
1114.583984,0.02794132667996788
1116.300781,0.027770035416965516
1118.017578,0.027607440515634154
1119.734375,0.02745341138142357
1121.449219,0.027307989170942622
1123.166016,0.027170733642946084
1124.880859,0.027041858609773407
1126.595703,0.026921114669944533
1128.310547,0.02680842334052514
1130.025391,0.02670371570847325
1131.738281,0.026607038136486308
1133.451172,0.026518216814591433
1135.164062,0.026437211110889265
1136.876953,0.02636398928045352
1138.589844,0.026298528729232523
1140.302734,0.026240815791660904
1142.013672,0.02619089817254884
1143.724609,0.026148709783432495
1145.435547,0.026114263468972346
1147.146484,0.026087580995964237
1148.855469,0.026068710013870275
1150.566406,0.026057646832487888
1152.275391,0.02605446495456557
1153.984375,0.026059204440858866
1155.693359,0.02607193145384215
1157.402344,0.02609272125593519
1159.109375,0.026121620480928497
1160.816406,0.02615874161804648
1162.525391,0.026204244142616184
1164.230469,0.026258069637086483
1165.9375,0.02632051008598639
1167.644531,0.026391639842469325
1169.349609,0.026471503188003426
1171.054688,0.026560326715862483
1172.759766,0.026658270330236433
1174.464844,0.026765504035270685
1176.169922,0.02688220781224323
1177.873047,0.027008421399591975
1179.576172,0.0271444725540678
1181.28125,0.027290744342279127
1182.982422,0.02744693646363777
1184.685547,0.027613799088865514
1186.388672,0.027791398998114163
1188.089844,0.027979763801473892
1189.791016,0.028179350327639158
1191.492188,0.0283904277942607
1193.193359,0.02861327498065197
1194.892578,0.028847903858657972
1196.59375,0.029095151031479992
1198.292969,0.029354754685451002
1199.992188,0.02962730571697781
1201.691406,0.029913126348308824
1203.390625,0.03021254706174894
1205.087891,0.030525536786278694
1206.785156,0.030852774444735945
1208.482422,0.0311946092525327
1210.179688,0.03155139511193034
1211.876953,0.03192349035766078
1213.574219,0.03231125758382394
1215.269531,0.03271458713362914
1216.964844,0.0331342817562135
1218.660156,0.03357070661344893
1220.355469,0.0340242271894681
1222.050781,0.034495205957708615
1223.744141,0.03498342968503605
1225.4375,0.035489783969201
1227.130859,0.03601461657876179
1228.824219,0.03655826750967364
1230.517578,0.03712106632000831
1232.210938,0.03770333268564711
1233.902344,0.03830466610741896
1235.59375,0.03892601743216052
1237.285156,0.039567660289215614
1238.976562,0.04022984979183674
1240.667969,0.040912821012854504
1242.357422,0.041615960386963385
1244.046875,0.04234023216091945
1245.736328,0.04308579744303437
1247.425781,0.043852789271243274
1249.115234,0.044641310753973776
1250.802734,0.04545048428488717
1252.492188,0.046282221246517125
1254.179688,0.04713460058798911
1255.867188,0.048008538263617825
1257.554688,0.04890396300921463
1259.240234,0.04981969073237361
1260.927734,0.05075769462341665
1262.613281,0.05171561266135488
1264.298828,0.05269428695868644
1265.984375,0.05369344491622278
1267.667969,0.05471157995950879
1269.353516,0.05575069953742663
1271.037109,0.05680800060512801
1272.720703,0.05788424373961835
1274.404297,0.05897895717477261
1276.087891,0.06009163369269192
1277.771484,0.06122173153571566
1279.453125,0.06236733974723628
1281.134766,0.06352916034777867
1282.816406,0.06470657001164114
1284.498047,0.06589892724681756
1286.179688,0.06710557278843551
1287.859375,0.06832441196105062
1289.541016,0.06955760713535082
1291.220703,0.07080162131741563
1292.900391,0.07205721817057595
1294.580078,0.07332374858432936
1296.257812,0.07459909798910852
1297.9375,0.07588564271572376
1299.615234,0.07717983595375695
1301.292969,0.07848266472352154
1302.970703,0.0797936799382595
1304.646484,0.08111096215127202
1306.324219,0.08243727893511463
1308.0,0.08376932417437262
1309.675781,0.085108518181247
1311.351562,0.08645484717052561
1313.027344,0.08780841429929816
1314.703125,0.08916944598396834
1316.376953,0.0905367058325906
1318.050781,0.09191227997802369
1319.724609,0.09329682320653698
