Raman Shift (cm-1),Fitted Intensity
150.119141,0.0712498809312367
152.046875,0.07126356764923697
153.974609,0.07127740322066416
155.900391,0.07129137578551582
157.828125,0.07130551609955176
159.753906,0.0713197979990039
161.679688,0.07133423827197391
163.603516,0.07134882460296096
165.529297,0.07136358925972845
167.453125,0.07137850499685955
169.376953,0.07139358946458743
171.300781,0.07140884548612692
173.222656,0.07142426019565583
175.146484,0.07143986787418843
177.068359,0.07145563984992648
178.990234,0.07147159496167851
180.910156,0.07148771986857363
182.832031,0.07150405060575182
184.751953,0.07152055728507027
186.671875,0.07153725978374906
188.591797,0.07155416156222612
190.511719,0.07157126616516847
192.429688,0.07158855950865742
194.347656,0.07160606258891535
196.265625,0.07162377922605914
198.183594,0.07164171330792966
200.099609,0.07165985021889161
202.015625,0.07167821221201456
203.933594,0.07169682253435954
205.847656,0.07171562826600686
207.763672,0.07173469103890422
209.677734,0.07175397648330141
211.59375,0.07177352861122574
213.507812,0.07179331229565462
215.419922,0.07181333165519702
217.333984,0.07183363256519015
219.246094,0.07185417874850646
221.158203,0.07187499602810664
223.070312,0.0718960898235243
224.982422,0.0719174657042612
226.892578,0.07193910708516711
228.802734,0.07196104152061057
230.712891,0.07198327504278457
232.623047,0.07200581382023788
234.533203,0.07202866423398105
236.441406,0.07205180898459948
238.349609,0.07207527799866421
240.257812,0.07209907819742224
242.166016,0.07212321671966841
244.072266,0.07214767564054884
245.980469,0.07217251264298208
247.886719,0.07219768465796837
249.791016,0.0722231985676882
251.697266,0.07224911494619345
253.601562,0.0722753891611113
255.507812,0.07230208389557582
257.412109,0.07232915346461853
259.314453,0.07235660592415798
261.21875,0.07238450723880932
263.121094,0.07241281007364396
265.023438,0.07244155303560103
266.925781,0.07247074665474422
268.828125,0.07250040185767381
270.728516,0.07253049871364994
272.628906,0.0725610790188134
274.529297,0.07259215480714973
276.429688,0.07262373847746645
278.330078,0.07265584285860299
280.228516,0.07268844745966646
282.126953,0.0727215986936579
284.025391,0.0727553108087369
285.923828,0.0727895984943515
287.822266,0.0728244770468029
289.71875,0.07285992542710357
291.615234,0.07289599558352974
293.511719,0.07293270450213642
295.40625,0.07297003092839682
297.302734,0.07300807009988883
299.197266,0.07304676262965647
301.091797,0.07308616695612512
302.986328,0.07312630352707133
304.878906,0.07316715103172332
306.773438,0.07320881586252087
308.666016,0.07325123500123937
310.558594,0.07329447485960462
312.449219,0.07333851432547842
314.341797,0.07338347022031641
316.232422,0.07342927664842716
318.123047,0.07347600755294734
320.013672,0.07352369214240784
321.904297,0.07357236089338849
323.792969,0.07362199376051846
325.681641,0.07367267362691461
327.570312,0.07372443507079142
329.458984,0.07377731432062318
331.347656,0.073831349180086
333.234375,0.07388652148994199
335.121094,0.07394292783044365
337.007812,0.07400061143464755
338.894531,0.07405961769930898
340.779297,0.07411993090305496
342.664062,0.07418166110527374
344.548828,0.074244860538739
346.433594,0.07430958395317253
348.318359,0.07437588887387356
350.201172,0.07444376460875124
352.085938,0.07451341553911792
353.96875,0.0745847641372974
355.849609,0.07465787517716561
357.732422,0.07473297460662831
359.613281,0.07480998455551839
361.494141,0.07488906424355207
363.375,0.0749703004266737
365.255859,0.07505378490295726
367.134766,0.07513952436505711
369.015625,0.07522779952881548
370.894531,0.07531853556986731
372.773438,0.075411937734281
374.650391,0.07550802620936226
376.529297,0.07560713011172893
378.40625,0.07570918034599056
380.283203,0.07581442380828472
382.160156,0.07592301519842942
384.035156,0.07603500069619717
385.912109,0.07615078895627997
387.787109,0.0762703258013698
389.662109,0.07639392899013375
391.537109,0.07652181140281102
393.410156,0.076654060404218
395.283203,0.07679104993298212
397.15625,0.07693304039933124
399.029297,0.0770803111621223
400.902344,0.07723316222968572
402.773438,0.07739174741909265
404.646484,0.0775567445371602
406.517578,0.07772818289549505
408.388672,0.07790663341766974
410.257812,0.07809233244386543
412.128906,0.07828613773440793
413.998047,0.07848815231199457
415.867188,0.07869912428373027
417.736328,0.0789196507440662
419.603516,0.0791501346582742
421.470703,0.07939150599864224
423.339844,0.07964480476830824
425.207031,0.07991034174395625
427.072266,0.08018899514184287
428.939453,0.08048235396088735
430.804688,0.08079090735368191
432.669922,0.08111616551077619
434.535156,0.08145946321413404
436.400391,0.08182227390024356
438.263672,0.08220581302255442
440.126953,0.08261225059074268
441.990234,0.08304358632281449
443.853516,0.0835020465856485
445.716797,0.0839901148691229
447.578125,0.0845100064151812
449.439453,0.0850653228154807
451.300781,0.08565955614290306
453.162109,0.08629664351422367
455.023438,0.08698103715286673
456.882812,0.08771698276270842
458.742188,0.088510901140951
460.601562,0.0893693276564737
462.460938,0.0902997526373828
464.318359,0.09130967676546832
466.177734,0.09241115487706617
468.035156,0.09361336482990569
469.892578,0.09493078054030091
471.748047,0.09637743514232275
473.605469,0.09797472536905899
475.460938,0.09974093931440542
477.316406,0.10170336424193854
479.171875,0.10389269758526448
481.025391,0.10634310987784529
482.880859,0.10910439501166841
484.734375,0.11222507400362049
486.587891,0.11577455699319603
488.441406,0.11983538919235735
490.292969,0.12450534620876268
492.146484,0.12992396810184653
493.998047,0.13624447916046914
495.849609,0.14368329729288204
497.701172,0.15251410993192743
499.550781,0.16308307078395523
501.402344,0.17588623327842845
503.251953,0.19152874363346775
505.101562,0.21087478595475728
506.949219,0.23505325912531028
508.798828,0.2656918110339335
510.646484,0.30486251705086576
512.494141,0.3554328578015327
514.341797,0.4209738302103341
516.189453,0.5053740570237065
518.035156,0.6110636974073265
519.880859,0.735082915607088
521.728516,0.8615355250896549
523.572266,0.9563298381930937
525.417969,0.9818725647691069
527.261719,0.927850399122884
529.107422,0.8222769800127278
530.951172,0.7046142583354218
532.792969,0.5999187850207242
534.636719,0.5165322682429196
536.478516,0.4541675621117366
538.322266,0.4091316939824028
540.164062,0.377616952490112
542.003906,0.3562296045924824
543.845703,0.34225019120989786
545.685547,0.3336189594571873
547.525391,0.3286758701911907
549.365234,0.32611197380765083
551.205078,0.3248703523271187
553.044922,0.3240932258609324
554.882812,0.3230908034170606
556.720703,0.32132010939389144
558.558594,0.31837472344747747
560.396484,0.31397618421484
562.232422,0.307974160007203
564.068359,0.30031967694337985
565.90625,0.29105794613619856
567.740234,0.28036398485410174
569.576172,0.26841969348038874
571.412109,0.2555020098160299
573.246094,0.241924987871936
575.080078,0.2279876194277356
576.914062,0.21399812980827926
578.746094,0.20025953612676228
580.580078,0.1869986970129709
582.412109,0.17445832703583813
584.244141,0.16279152721804946
586.076172,0.15211711133311495
587.90625,0.14251593724025152
589.738281,0.13399481217760656
591.568359,0.1265609910428686
593.398438,0.12016256681956759
595.228516,0.11473333163163371
597.056641,0.11019479204379798
598.886719,0.10644453505349513
600.714844,0.10339401217195253
602.542969,0.10094323793839644
604.371094,0.09900124933120585
606.197266,0.09748573944863555
608.025391,0.09631865113890721
609.851562,0.09543735197854974
611.677734,0.0947850009734379
613.503906,0.0943153950203211
615.328125,0.09399105740674157
617.152344,0.09378121048639554
618.978516,0.09366198679200116
620.800781,0.09361522825850746
622.625,0.09362665366345939
624.449219,0.09368584718377237
626.271484,0.09378495199062795
628.09375,0.09391843714123504
629.916016,0.09408236101859603
631.738281,0.09427401158056312
633.558594,0.09449135276161955
635.380859,0.09473375338899775
637.201172,0.09500012023355589
639.021484,0.09529052878660166
640.839844,0.09560477940157322
642.660156,0.09594396659028308
644.478516,0.09630802114734045
646.296875,0.09669817634411837
648.115234,0.09711553975416504
649.933594,0.09756145205925473
651.75,0.09803697453729003
653.566406,0.09854442670546644
655.382812,0.09908596361943567
657.199219,0.09966407277639236
659.015625,0.10028161032050367
660.830078,0.10094111058280164
662.646484,0.10164771487413501
664.460938,0.10240412541794011
666.275391,0.10321585011602108
668.087891,0.10408730252314558
669.902344,0.10502641186221093
671.714844,0.1060379263984184
673.527344,0.10713037035897738
675.339844,0.10831213993243013
677.150391,0.10959109869516781
678.962891,0.11098025463219705
680.773438,0.112487854225143
682.583984,0.11412761182264862
684.394531,0.1159128919652399
686.205078,0.11785816531254452
688.013672,0.11997663649366352
689.822266,0.12228697235611759
691.630859,0.1248069243609207
693.439453,0.12755530603165305
695.248047,0.13055192624658318
697.054688,0.13381383488134596
698.861328,0.13736560134797204
700.667969,0.141229384974427
702.474609,0.14542786564944402
704.28125,0.14998408248182726
706.085938,0.15491566400399512
707.890625,0.16025036367154608
709.695312,0.16601088827455307
711.5,0.17221935647186
713.304688,0.17889701065585067
715.107422,0.18605590216537282
716.910156,0.19372156186044331
718.712891,0.20191078765442966
720.515625,0.21063828963315967
722.318359,0.2199164074019359
724.119141,0.22974382339982485
725.919922,0.24013689358412177
727.720703,0.2510989291508195
729.521484,0.2626295961440044
731.322266,0.27472457069396095
733.121094,0.2873610943255039
734.919922,0.30053843808410463
736.71875,0.3142376446327477
738.517578,0.32843365236892075
740.316406,0.34309442892702324
742.113281,0.358163301790608
743.910156,0.3736066566806134
745.707031,0.3893642945156683
747.503906,0.40536326288047886
749.300781,0.4215158080680134
751.095703,0.4376996432622595
752.890625,0.4538090125354526
754.685547,0.4697001945858253
756.480469,0.4852082464918367
758.275391,0.500147622720278
760.068359,0.5142997984620278
761.861328,0.527465433805381
763.654297,0.5394232581528648
765.447266,0.5499571015795898
767.240234,0.5588684391996972
769.03125,0.5659832918308554
770.822266,0.5711897574447049
772.613281,0.5744202041294617
774.404297,0.5756686450703633
776.195312,0.5749923971330443
777.984375,0.5725120207325052
779.773438,0.5683953172043793
781.5625,0.5628489463836547
783.351562,0.5561053010519122
785.140625,0.5484092030295354
786.927734,0.5400155852965924
788.714844,0.531152402490422
790.501953,0.5220401298826914
792.289062,0.5128797367357895
794.076172,0.503850843218592
795.861328,0.4951208985623575
797.646484,0.4868170215710174
799.433594,0.479049290957561
801.216797,0.47194345902731194
803.001953,0.4655613360952825
804.785156,0.4599897742604349
806.570312,0.45527794580768627
808.353516,0.4514871610327968
810.136719,0.44865353056696794
811.917969,0.44681189435454743
813.701172,0.44598384610299063
815.482422,0.44618958151570265
817.263672,0.4474391615058208
819.044922,0.44973755770915463
820.824219,0.45307915495549583
822.605469,0.45746373261823103
824.384766,0.4628680682799797
826.164062,0.4692768137663455
827.943359,0.47666442907097145
829.722656,0.4849993695444433
831.5,0.4942333735911174
833.279297,0.5043428830099983
835.056641,0.5152554069314405
836.832031,0.5269112285089815
838.609375,0.5392715908038771
840.386719,0.5522516570503624
842.162109,0.5657552482105647
843.9375,0.5797061564253135
845.712891,0.594004053305175
847.488281,0.6085377059583876
849.261719,0.6231682888757228
851.035156,0.6377776139775254
852.810547,0.6522358385454305
854.582031,0.6663393207286243
856.355469,0.679969923328924
858.128906,0.6929401047672326
859.900391,0.7050628131516385
861.671875,0.7161817189545345
863.443359,0.7261347395949064
865.214844,0.7347758746386626
866.984375,0.74197580682279
868.755859,0.74765988612285
870.525391,0.7517637919850853
872.294922,0.7542873968131547
874.064453,0.7552720432804468
875.832031,0.7548108026608314
877.601562,0.7530442463090901
879.369141,0.7501645307118444
881.136719,0.7464002721784001
882.904297,0.742016336961865
884.669922,0.7373098523195704
886.4375,0.7325801964889012
888.203125,0.7281562967864804
889.96875,0.7243512014960196
891.734375,0.7214746668395841
893.498047,0.7198206778222128
895.263672,0.7196537267989614
897.027344,0.721210369513988
898.791016,0.7246874640130047
900.554688,0.7302388857860537
902.316406,0.7379589673913106
904.080078,0.7479133195934191
905.841797,0.7600660235711615
907.603516,0.7743417511422294
909.365234,0.7905711520768873
911.126953,0.8084816091715846
912.886719,0.8276484026449028
914.646484,0.8475240921172802
916.408203,0.8673595099605281
918.166016,0.8860808866294404
919.925781,0.9024978231937651
921.685547,0.9151324660257013
923.443359,0.9224469241683211
925.201172,0.9230589258330707
926.958984,0.9159507466360084
928.716797,0.9007039695849368
930.472656,0.8776276010861802
932.230469,0.8475808447962626
933.986328,0.811971628699383
935.742188,0.7722910447640005
937.496094,0.7300701606901817
939.251953,0.6865185994688926
941.005859,0.6427982076220284
942.761719,0.5996406317219057
944.515625,0.5577629731645384
946.267578,0.517613999395427
948.021484,0.4794275734073473
949.773438,0.44351119758577046
951.527344,0.4099284236069599
953.279297,0.3788332868817426
955.029297,0.35024341697692946
956.78125,0.32407567521777536
958.533203,0.3003056353957899
960.283203,0.2788661445235716
962.033203,0.259613918518418
963.783203,0.24241355764297795
965.53125,0.22713163107748674
967.28125,0.21357607851268612
969.029297,0.20161600326816653
970.777344,0.19107531469501698
972.525391,0.18179871592014743
974.273438,0.17363860802073428
976.019531,0.16646482221538833
977.767578,0.16013508542193472
979.513672,0.1545496549742505
981.259766,0.14959958327191725
983.005859,0.14519557986354842
984.75,0.14126406437470945
986.496094,0.1377292734358484
988.240234,0.13454196568821988
989.984375,0.1316495194900667
991.728516,0.12901105606481286
993.470703,0.12659482914935688
995.214844,0.12436666815982342
996.957031,0.12230753726408784
998.699219,0.12039473282156349
1000.441406,0.11861138141790953
1002.181641,0.11694507335601659
1003.923828,0.1153800419245084
1005.664062,0.11390956222208068
1007.404297,0.11252305375708291
1009.144531,0.11121294001109028
1010.884766,0.10997262271223956
1012.623047,0.10879760579909527
1014.363281,0.10768014758576658
1016.101562,0.10661823276900245
1017.839844,0.10560653857973393
1019.576172,0.10464250347186377
1021.314453,0.1037206967018994
1023.050781,0.10284024385505211
1024.787109,0.10199741505016657
1026.523438,0.10118977985886973
1028.259766,0.1004151226959309
1029.996094,0.09967141683757696
1031.730469,0.09895759431036846
1033.464844,0.09827110383337972
1035.199219,0.09761038431081108
1036.933594,0.0969739977637287
1038.667969,0.09636061732511542
1040.400391,0.09576967091735634
1042.134766,0.09519869165016313
1043.867188,0.09464791477462697
1045.599609,0.09411571106695214
1047.330078,0.09360174285902884
1049.0625,0.0931040052340219
1050.792969,0.09262283259160596
1052.523438,0.09215691852193222
1054.253906,0.09170557401413962
1055.984375,0.09126815207986912
1057.712891,0.09084451715562968
1059.443359,0.09043314161749166
1061.171875,0.09003441701410186
1062.900391,0.08964736677508878
1064.628906,0.08927151389954624
1066.355469,0.08890681350792887
1068.083984,0.08855201453600473
1069.810547,0.08820751500954882
1071.537109,0.08787252665418042
1073.263672,0.08754668648837381
1074.990234,0.08722965046100575
1076.714844,0.08692143511532904
1078.439453,0.08662136678371833
1080.164062,0.0863291496244234
1081.888672,0.08604450174351731
1083.613281,0.08576715483190502
1085.337891,0.085496852247327
1087.060547,0.08523364422842665
1088.783203,0.08497698759332407
1090.505859,0.08472665963559235
1092.228516,0.08448244722196767
1093.951172,0.08424414682729597
1095.671875,0.08401182370922197
1097.392578,0.08378501813942199
1099.113281,0.08356355163134419
1100.833984,0.08334725306593196
1102.554688,0.08313595819552753
1104.273438,0.08292974141037007
1105.992188,0.082728209297499
1107.712891,0.08253099585701772
1109.429688,0.08233862601855335
1111.148438,0.08215030225485973
1112.867188,0.08196611743769718
1114.583984,0.0817861506336456
1116.300781,0.0816100715760884
1118.017578,0.08143776637213623
1119.734375,0.08126912526527404
1121.449219,0.08110422836174498
1123.166016,0.08094259832259403
1124.880859,0.08078450507008594
1126.595703,0.08062966831505625
1128.310547,0.0804779972219223
1130.025391,0.08032940407969097
1131.738281,0.08018396849016603
1133.451172,0.08004143791353273
1135.164062,0.07990173392124202
1136.876953,0.07976478044845205
1138.589844,0.07963050425727543
1140.302734,0.07949883457877571
1142.013672,0.07936984860162617
1143.724609,0.0792433289108652
1145.435547,0.07911921156748424
1147.146484,0.07899743501585801
1148.855469,0.07887807454447343
1150.566406,0.07876079977789359
1152.275391,0.0786458225416901
1153.984375,0.07853295390726402
1155.693359,0.07842214157749058
1157.402344,0.07831333490741924
1159.109375,0.07820660603796208
1160.816406,0.078101782126076
1162.525391,0.07799870052924048
1164.230469,0.07789766722209537
1165.9375,0.07779828885359517
1167.644531,0.07770064048250495
1169.349609,0.07760479054582338
1171.054688,0.07751058728689508
1172.759766,0.07741799304041383
1174.464844,0.07732697117656356
1176.169922,0.07723748630314828
1177.873047,0.07714960412385176
1179.576172,0.07706318831899714
1181.28125,0.07697811045524859
1182.982422,0.0768946298136875
1184.685547,0.07681242703127669
1186.388672,0.07673157050678317
1188.089844,0.07665212371543038
1189.791016,0.07657396758357969
1191.492188,0.07649707789980573
1193.193359,0.07642143196641102
1194.892578,0.07634709328424572
1196.59375,0.07627387160060761
1198.292969,0.07620191754047496
1199.992188,0.07613113096569633
1201.691406,0.07606149885360754
1203.390625,0.0759930106697027
1205.087891,0.07592573570582076
1206.785156,0.07585959046085838
1208.482422,0.07579457445031551
1210.179688,0.07573069158425567
1211.876953,0.0756679506409005
1213.574219,0.0756063658384945
1215.269531,0.07554602669145595
1216.964844,0.07548688932114272
1218.660156,0.07542898968633116
1220.355469,0.0753723728894256
1222.050781,0.075317094703483
1223.744141,0.07526328392909985
1225.4375,0.07521095702194498
1227.130859,0.07516020996359286
1228.824219,0.07511115580071245
1230.517578,0.07506392681964547
1232.210938,0.07501867663698278
1233.902344,0.07497563130261478
1235.59375,0.07493494096906357
1237.285156,0.07489683861070442
1238.976562,0.07486158975965118
1240.667969,0.07482949582403767
1242.357422,0.07480092856786805
1244.046875,0.07477623171961945
1245.736328,0.07475583484761755
1247.425781,0.07474021846478639
1249.115234,0.07472991822803787
1250.802734,0.07472553065555622
1252.492188,0.07472770384200131
1254.179688,0.07473715798264681
1255.867188,0.074754688441223
1257.554688,0.07478116844141465
1259.240234,0.07481750346800875
1260.927734,0.07486481477353742
1262.613281,0.07492411578009875
1264.298828,0.07499666708344757
1265.984375,0.07508377403230894
1267.667969,0.07518670762505604
1269.353516,0.07530720139895723
1271.037109,0.0754465644561855
1272.720703,0.07560660826869453
1274.404297,0.07578910820304931
1276.087891,0.07599593003319591
1277.771484,0.07622902534925895
1279.453125,0.07649010586386107
1281.134766,0.07678152348800715
1282.816406,0.0771054386543662
1284.498047,0.07746406500300645
1286.179688,0.07785965564907943
1287.859375,0.07829396056663207
1289.541016,0.07877027614217699
1291.220703,0.0792897688695459
1292.900391,0.07985521021918168
1294.580078,0.08046879086615208
1296.257812,0.08113182619721127
1297.9375,0.08184787561941832
1299.615234,0.08261715938736608
1301.292969,0.08344221093816952
1302.970703,0.0843245774490452
1304.646484,0.085264465376206
1306.324219,0.08626515868674836
1308.0,0.08732514543227154
1309.675781,0.08844607264877577
1311.351562,0.089628125855375
1313.027344,0.09087113188792822
