Raman Shift (cm-1),Fitted Intensity
150.119141,0.017504489106467017
152.046875,0.019348898516445525
153.974609,0.021364757365694605
155.900391,0.023553602145184958
157.828125,0.02592173814132137
159.753906,0.028463978791140866
161.679688,0.03117972709510783
163.603516,0.034060309590653426
165.529297,0.03710296378500888
167.453125,0.040289814548415695
169.376953,0.04360897653512425
171.300781,0.04704232786227932
173.222656,0.05056493618562307
175.146484,0.05415959285420543
177.068359,0.057791791180989406
178.990234,0.06143536981426611
180.910156,0.06505465132823135
182.832031,0.06862320553871215
184.751953,0.07209873193090138
186.671875,0.07544913367496246
188.591797,0.07863852550421038
190.511719,0.0816315391409223
192.429688,0.08439130887614783
194.347656,0.08688875517257506
196.265625,0.08909416402060867
198.183594,0.09098096726375798
200.099609,0.09252495527823514
202.015625,0.09370976090792653
203.933594,0.09452234571023121
205.847656,0.09495235921694958
207.763672,0.09499886024253802
209.677734,0.09466483455770738
211.59375,0.09395888808260808
213.507812,0.09289817233441076
215.419922,0.09150607767773981
217.333984,0.08980890284839493
219.246094,0.0878461817905158
221.158203,0.08565946393257215
223.070312,0.08329902024000872
224.982422,0.08082221069947845
226.892578,0.07829584743598714
228.802734,0.07578783050009863
230.712891,0.07337405898758502
232.623047,0.07113466708169436
234.533203,0.0691521807769527
236.441406,0.06751054515045135
238.349609,0.06628664267007554
240.257812,0.06555265453218506
242.166016,0.06536965777599095
244.072266,0.06578233333282024
245.980469,0.06681668454061242
247.886719,0.06847126407841153
249.791016,0.07071694017487161
251.697266,0.07350083081274168
253.601562,0.07672888306383648
255.507812,0.08028944645436345
257.412109,0.08403063426131084
259.314453,0.0877866618505963
261.21875,0.09138632128160064
263.121094,0.09463895997327347
265.023438,0.0973706494637696
266.925781,0.09941928124026482
268.828125,0.10064810534372748
270.728516,0.1009543153540806
272.628906,0.10027692300139575
274.529297,0.0985969464852227
276.429688,0.0959399536095466
278.330078,0.0923739317998185
280.228516,0.0880092488665818
282.126953,0.08297811558921972
284.025391,0.0774373613429491
285.923828,0.07155556812492311
287.822266,0.06550329619073562
289.71875,0.059450214051214145
291.615234,0.053538316166615516
293.511719,0.04789497310968195
295.40625,0.042627998196113175
297.302734,0.03780236843541263
299.197266,0.03347711200977232
301.091797,0.029671078855425553
302.986328,0.026386229176489247
304.878906,0.02360877822960042
306.773438,0.021302416944655282
308.666016,0.019431389793241508
310.558594,0.017946560636532237
312.449219,0.01679984740401479
314.341797,0.015940053676433964
316.232422,0.01532258823036241
318.123047,0.01490398664406517
320.013672,0.014646599790742584
321.904297,0.014517964445362666
323.792969,0.014490790569881158
325.681641,0.01454258429608156
327.570312,0.014655467738509065
329.458984,0.014815420595680544
331.347656,0.015011682853098828
333.234375,0.015235929842511618
335.121094,0.015482432203860684
337.007812,0.015746949466656796
338.894531,0.016026525469846953
340.779297,0.01631885940270945
342.664062,0.01662295763931019
344.548828,0.016938060429433043
346.433594,0.017263777022300635
348.318359,0.01759997885130112
350.201172,0.017946358208636302
352.085938,0.018303821017558917
353.96875,0.018671907113693716
355.849609,0.019050931229274974
357.732422,0.019442082197881117
359.613281,0.019844991421613684
361.494141,0.020260538123127534
363.375,0.02068923414915576
365.255859,0.02113162368596562
367.134766,0.021587800679272243
369.015625,0.022059320077421528
370.894531,0.022545842458827767
372.773438,0.02304852374563406
374.650391,0.023567524997141816
376.529297,0.02410467546608604
378.40625,0.024659647623454062
380.283203,0.025233822794235142
382.160156,0.02582807987614968
384.035156,0.026442695994813022
385.912109,0.027079932184827654
387.787109,0.027739497999327397
389.662109,0.02842313976368785
391.537109,0.02913201652744172
393.410156,0.029866575784712662
395.283203,0.03062883944046856
397.15625,0.03142018250621027
399.029297,0.032242063633166396
400.902344,0.03309603105106249
402.773438,0.033982785225891765
404.646484,0.03490592235923378
406.517578,0.03586537157089805
408.388672,0.03686404578360784
410.257812,0.03790293293755441
412.128906,0.03898643554438069
413.998047,0.04011466434522395
415.867188,0.04129125493324057
417.736328,0.04251890285596478
419.603516,0.04379911863475668
421.470703,0.04513621939385818
423.339844,0.04653497289585903
425.207031,0.0479959553670917
427.072266,0.04952270332717791
428.939453,0.05112241114730398
430.804688,0.05279600870279319
432.669922,0.05454970331740815
434.535156,0.05638839626279983
436.400391,0.05831734090481705
438.263672,0.06033999442534541
440.126953,0.06246435037363444
441.990234,0.06469686788511847
443.853516,0.06704447892483427
445.716797,0.06951461871045661
447.578125,0.07211247377121047
449.439453,0.0748491072842571
451.300781,0.07773368212761068
453.162109,0.0807760274212975
455.023438,0.08398668446764582
456.882812,0.08737328719219906
458.742188,0.09095117772381892
460.601562,0.09473324426697066
462.460938,0.09873327118169292
464.318359,0.10296136915829848
466.177734,0.10744205989291278
468.035156,0.11218249197721798
469.892578,0.11720475303334618
471.748047,0.12252154716471846
473.605469,0.12816342514374562
475.460938,0.13413868895662648
477.316406,0.14047396351777358
479.171875,0.14719067162694938
481.025391,0.15430282198293613
482.880859,0.16184709060646293
484.734375,0.16982882407432767
486.587891,0.17827593786257748
488.441406,0.18720693170977015
490.292969,0.19662752985538068
492.146484,0.20656983038210078
493.998047,0.2170201257116356
495.849609,0.2279892864098483
497.701172,0.23946962092068824
499.550781,0.2514300597674179
501.402344,0.2638649309111578
503.251953,0.2767018390283199
505.101562,0.2898897793550946
506.949219,0.30333034507651535
508.798828,0.31694562575277757
510.646484,0.33057700023176717
512.494141,0.3440848554525192
514.341797,0.3572919887298738
516.189453,0.370000632480857
518.035156,0.3819849461700315
519.880859,0.3930369044481475
521.728516,0.40294483376175666
523.572266,0.4114690624811293
525.417969,0.418451728348183
527.261719,0.42372615938318164
529.107422,0.42719701816225414
530.951172,0.4288042905780165
532.792969,0.4285594775325863
534.636719,0.4265262384136542
536.478516,0.4228275246953079
538.322266,0.4176211260957697
540.164062,0.4111194449450931
542.003906,0.403550799482719
543.845703,0.39513372409729397
545.685547,0.3861180779187701
547.525391,0.3767137465083717
549.365234,0.3671162984530062
551.205078,0.35749055955279774
553.044922,0.34796383852908946
554.882812,0.3386293169002291
556.720703,0.32950971881229285
558.558594,0.3205818027684239
560.396484,0.31176280623328445
562.232422,0.30292377424874745
564.068359,0.2938788064857814
565.90625,0.28443608951540683
567.740234,0.2744854717922525
569.576172,0.2639377943220704
571.412109,0.2528479786914264
573.246094,0.2413639043638265
575.080078,0.2296632654317119
576.914062,0.21794695652119583
578.746094,0.20640756573168115
580.580078,0.19516444274819403
582.412109,0.18434652485321126
584.244141,0.1740128200371198
586.076172,0.16420808731885442
587.90625,0.15496694223533578
589.738281,0.14628018936803067
591.568359,0.13816595289430403
593.398438,0.13060578089821742
595.228516,0.12358399393986476
597.056641,0.11708607323684424
598.886719,0.11107260077365451
600.714844,0.10552762166882759
602.542969,0.10041344606320775
604.371094,0.0956978064931235
606.197266,0.09135257447725276
608.025391,0.0873363929172244
609.851562,0.08362701675462604
611.677734,0.08019090877852855
613.503906,0.07700112021624528
615.328125,0.07403612753316896
617.152344,0.07127035275354539
618.978516,0.06868155153917598
620.800781,0.06626059311686207
622.625,0.06398453154918682
624.449219,0.06184322918370572
626.271484,0.05982786684956061
628.09375,0.05792690238592264
629.916016,0.056132686132456734
631.738281,0.05443893759564683
633.558594,0.052842273803187734
635.380859,0.05133536048431246
637.201172,0.0499185730723673
639.021484,0.048588399639530655
640.839844,0.04734525277400131
642.660156,0.04618656051628564
644.478516,0.04511589334597512
646.296875,0.044134071655684705
648.115234,0.04324427864304399
649.933594,0.04245083821731269
651.75,0.04175997811038507
653.566406,0.04117761340757224
655.382812,0.04071195231972617
657.199219,0.040372686804382094
659.015625,0.0401710913238749
660.830078,0.04012008806926322
662.646484,0.040234280308281696
664.460938,0.04052997042963939
666.275391,0.04102565339531701
668.087891,0.04174088958070968
669.902344,0.04269969521467666
671.714844,0.043924504739571005
673.527344,0.045442742255178414
675.339844,0.04728294912483781
677.150391,0.049473046748854804
678.962891,0.05205004781985486
680.773438,0.055042312391887435
682.583984,0.05848775209827967
684.394531,0.06242293098548682
686.205078,0.06688530747270455
688.013672,0.07190713319438097
689.822266,0.0775309086632579
691.630859,0.0837942357551154
693.439453,0.09073381920221787
695.248047,0.09838485792386004
697.054688,0.1067709439897798
698.861328,0.11593010970535364
700.667969,0.12588902628151522
702.474609,0.13667010791876472
704.28125,0.14829081199099434
706.085938,0.16074891007898884
707.890625,0.174061756652527
709.695312,0.18822749393264676
711.5,0.20323649622800802
713.304688,0.21907076544567272
715.107422,0.2356850202236166
716.910156,0.2530599605154563
718.712891,0.27115006901575167
720.515625,0.2899001069161314
722.318359,0.30924515029919986
724.119141,0.3290889176913837
725.919922,0.34936850072280673
727.720703,0.3699915833420999
729.521484,0.39085767763204193
731.322266,0.41185894930046346
733.121094,0.43285837357489654
734.919922,0.45375958491101787
736.71875,0.4744395191107783
738.517578,0.4947725510357061
740.316406,0.5146320097923557
742.113281,0.5338712437130374
743.910156,0.5523886128091215
745.707031,0.5700645525020132
747.503906,0.5867851187178341
749.300781,0.6024436673808061
751.095703,0.6169273815797472
752.890625,0.6301668925146016
754.685547,0.642087042238826
756.480469,0.6526257624446382
758.275391,0.6617351666809749
760.068359,0.6693749243097007
761.861328,0.6755387370672464
763.654297,0.6802257351571772
765.447266,0.6834513967570924
767.240234,0.6852475012012165
769.03125,0.6856621206847522
770.822266,0.6847610334898568
772.613281,0.6826219347516538
774.404297,0.6793361666651195
776.195312,0.6750075341047795
777.984375,0.6697571058820558
779.773438,0.6637047253373644
781.5625,0.6569822542674434
783.351562,0.6497276337664348
785.140625,0.6420830626535814
786.927734,0.6342018395783218
788.714844,0.6262204396501609
790.501953,0.6182821934144757
792.289062,0.6105273112844619
794.076172,0.6030911916645543
795.861328,0.5961101799693723
797.646484,0.5896966577596731
799.433594,0.5839562941710156
801.216797,0.5790078872210305
803.001953,0.5749237154941746
804.785156,0.5717902674877066
806.570312,0.5696655991471202
808.353516,0.5686060160282339
810.136719,0.5686468265250456
811.917969,0.5698108396525206
813.701172,0.5721119126550593
815.482422,0.5755431795740662
817.263672,0.5800920065058316
819.044922,0.5857316896729569
820.824219,0.5924161052314733
822.605469,0.6001109834594794
824.384766,0.6087406873059009
826.164062,0.6182454378060501
827.943359,0.6285496037828212
829.722656,0.6395706014944188
831.5,0.6512068913130256
833.279297,0.6633909284451611
835.056641,0.6759993504348127
836.832031,0.6889318369418508
838.609375,0.7021165303013237
840.386719,0.7154386852085608
842.162109,0.7287837971596371
843.9375,0.7420688957233278
845.712891,0.7551994152711049
847.488281,0.7680848515700162
849.261719,0.7806262097359
851.035156,0.7927587321799999
852.810547,0.8044229166137975
854.582031,0.8155169881622394
856.355469,0.8260232298230057
858.128906,0.8358833081014472
859.900391,0.845052025067527
861.671875,0.8535160986481378
863.443359,0.8612624227155862
865.214844,0.8682896520481689
866.984375,0.874601838668549
868.755859,0.8802355851406771
870.525391,0.8852129813732533
872.294922,0.8895866008790938
874.064453,0.8934133780204496
875.832031,0.8967569077468188
877.601562,0.8997006162957536
879.369141,0.9023216699870966
881.136719,0.9047133114979382
882.904297,0.9069697940109182
884.669922,0.909185446417379
886.4375,0.9114623488762058
888.203125,0.9138908042437112
889.96875,0.9165645789771137
891.734375,0.919568740391352
893.498047,0.9229757756304072
895.263672,0.9268587556844726
897.027344,0.9312611446164275
898.791016,0.9362229079151146
900.554688,0.941760815604603
902.316406,0.9478615861195484
904.080078,0.9545047646645182
905.841797,0.9616076803217736
907.603516,0.969067438875715
909.365234,0.976721914201596
911.126953,0.9843448887092088
912.886719,0.9916254196713504
914.646484,0.9981815766034646
916.408203,1.0035328701618658
918.166016,1.0070863106206043
919.925781,1.008205249327465
921.685547,1.0061971977569637
923.443359,1.0004072110057942
925.201172,0.990271456340732
926.958984,0.9754012287343243
928.716797,0.9556438774180765
930.472656,0.9311420035205531
932.230469,0.9022075405149111
933.986328,0.8694757656180219
935.742188,0.8336203098886618
937.496094,0.7954439840580138
939.251953,0.7556090359379563
941.005859,0.7148912133257481
942.761719,0.6738017580244243
944.515625,0.6329376505485472
946.267578,0.5927099857544408
948.021484,0.5533580412464459
949.773438,0.5152271111432907
951.527344,0.47843141109213483
953.279297,0.44320350853383234
955.029297,0.40964902013839677
956.78125,0.37777095753485984
958.533203,0.3476578425505497
960.283203,0.31936641996909815
962.033203,0.2928673708260957
963.783203,0.2681476025853276
965.53125,0.245202563243817
967.28125,0.2239377158669726
969.029297,0.2043452457672905
970.777344,0.1863351297360468
972.525391,0.16983381848453064
974.273438,0.15476144155796262
976.019531,0.14104824626799775
977.767578,0.12857644735981597
979.513672,0.11728574721833447
981.259766,0.10707364508661803
983.005859,0.09785371774625827
984.75,0.08955085330578012
986.496094,0.08206598375654756
988.240234,0.07533952453741424
989.984375,0.06929089956603669
991.728516,0.06385319455075798
993.470703,0.05896968504237373
995.214844,0.054572596107536335
996.957031,0.05062000885991644
998.699219,0.04705981387965853
1000.441406,0.043849682975267694
1002.181641,0.04095468200193402
1003.923828,0.03833434178331943
1005.664062,0.03596429463812857
1007.404297,0.03381459531117906
1009.144531,0.031861422647152256
1010.884766,0.030083674978877456
1012.623047,0.028464424141551356
1014.363281,0.02698353597684444
1016.101562,0.02562976775766616
1017.839844,0.024388503676364626
1019.576172,0.023249567786725395
1021.314453,0.022200292212855362
1023.050781,0.02123407421668006
1024.787109,0.020341722860115794
1026.523438,0.01951614246641567
1028.259766,0.018751000919155714
1029.996094,0.018040635372920024
1031.730469,0.01738069189163769
1033.464844,0.01676580876442106
1035.199219,0.01619191440060792
1036.933594,0.01565534715538923
1038.667969,0.015152810565925098
1040.400391,0.014681848705051842
1042.134766,0.014238723443779652
1043.867188,0.013822021276715057
1045.599609,0.013429052694543971
1047.330078,0.01305825909388136
1049.0625,0.012707029488432428
1050.792969,0.012374554094014167
1052.523438,0.012058978829856374
1054.253906,0.01175899451089334
1055.984375,0.011473415716109867
1057.712891,0.011201469718875798
1059.443359,0.010941571006310045
1061.171875,0.010693427052990645
1062.900391,0.010455941627715697
1064.628906,0.010228392241933146
1066.355469,0.010010364000347684
1068.083984,0.00980076801525675
1069.810547,0.00959953643105487
1071.537109,0.009405935547782504
1073.263672,0.009219516455021197
1074.990234,0.009039870062669798
1076.714844,0.008866814907340665
1078.439453,0.008699803785686602
1080.164062,0.008538525130661589
1081.888672,0.008382693667602378
1083.613281,0.008232048267183097
1085.337891,0.00808634918618304
1087.060547,0.007945533921264345
1088.783203,0.007809233773214858
1090.505859,0.007677264506911424
1092.228516,0.0075494571551116
1093.951172,0.007425657183417055
1095.671875,0.007305856891762863
1097.392578,0.007189785030969145
1099.113281,0.007077324526570627
1100.833984,0.006968369254541372
1102.554688,0.006862823446548146
1104.273438,0.006760715652617813
1105.992188,0.006661848211467546
1107.712891,0.006566047537570035
1109.429688,0.006473576882920627
1111.148438,0.006384066628905119
1112.867188,0.006297583700776356
1114.583984,0.006214189953117758
1116.300781,0.006133762649136204
1118.017578,0.006056287796136523
1119.734375,0.005981760027137049
1121.449219,0.005910262491017067
1123.166016,0.005841644621963591
1124.880859,0.0057760838806791
1126.595703,0.005713530952464612
1128.310547,0.005654025820204337
1130.025391,0.005597618113179065
1131.738281,0.0055444262753752815
1133.451172,0.00549445383344632
1135.164062,0.0054477809786056906
1136.876953,0.005404498660079623
1138.589844,0.005364709140697367
1140.302734,0.005328526284249777
1142.013672,0.005296110718838638
1143.724609,0.005267556933236959
1145.435547,0.005243015455412982
1147.146484,0.005222650086978161
1148.855469,0.005206653955297505
1150.566406,0.005195181859994081
1152.275391,0.005188465543617266
1153.984375,0.005186709618590954
1155.693359,0.005190149815540272
1157.402344,0.005199037740444454
1159.109375,0.005213621238979292
1160.816406,0.005234190999857707
1162.525391,0.005261082287127005
1164.230469,0.005294510056725194
1165.9375,0.005334913922625
1167.644531,0.0053826140054855625
1169.349609,0.005437915660065924
1171.054688,0.005501260128922399
1172.759766,0.0055730574036196474
1174.464844,0.005653737038778729
1176.169922,0.005743748224428808
1177.873047,0.005843439876159573
1179.576172,0.00595339697069964
1181.28125,0.006074271575181943
1182.982422,0.006206156396372609
1184.685547,0.006350032988427531
1186.388672,0.006506323365141509
1188.089844,0.006675412131662636
1189.791016,0.0068580748967995014
1191.492188,0.00705493411579623
1193.193359,0.00726663051894107
1194.892578,0.007493553116987676
1196.59375,0.007736898726507634
1198.292969,0.007996799340861985
1199.992188,0.008274230601284094
1201.691406,0.008569912659969729
1203.390625,0.008884579800039297
1205.087891,0.009218582268182148
1206.785156,0.00957302537965184
1208.482422,0.009948674157647308
1210.179688,0.01034630118285159
1211.876953,0.010766685515313944
1213.574219,0.01121061172356717
1215.269531,0.011678313125748616
1216.964844,0.012171072460165463
1218.660156,0.012689672886449052
1220.355469,0.013234895182532475
1222.050781,0.01380751290650619
1223.744141,0.014407583870942943
1225.4375,0.015036503140872834
1227.130859,0.015695009311338423
1228.824219,0.016383824432730495
1230.517578,0.01710364977143479
1232.210938,0.017855165664590705
1233.902344,0.018638102067152745
1235.59375,0.019453930461156815
1237.285156,0.02030324145783281
1238.976562,0.021186590259282417
1240.667969,0.0221044938203537
1242.357422,0.023056304540309703
1244.046875,0.02404348980250836
1245.736328,0.02506642764811516
1247.425781,0.02612544367541137
1249.115234,0.027220807567430748
1250.802734,0.028351399973644265
1252.492188,0.02951998596675772
1254.179688,0.030723943657167505
1255.867188,0.03196461539712864
1257.554688,0.033241940861776766
1259.240234,0.034554241917020334
1260.927734,0.03590434725696298
1262.613281,0.037288836454943644
1264.298828,0.03870887313162885
1265.984375,0.04016399320766378
1267.667969,0.0416518983862361
1269.353516,0.043175398205582416
1271.037109,0.04473022755235543
1272.720703,0.046317307212845
1274.404297,0.04793571423228154
1276.087891,0.04958443017690708
1277.771484,0.05126233831560828
1279.453125,0.05296623243960545
1281.134766,0.05469673406014234
1282.816406,0.05645243716336166
1284.498047,0.058231841464531406
1286.179688,0.060033346809396586
1287.859375,0.061853130198009254
1289.541016,0.0636936381409372
1291.220703,0.0655487163967092
1292.900391,0.06741852878115402
1294.580078,0.06930101987489684
1296.257812,0.07119184630760896
1297.9375,0.07309319356222835
1299.615234,0.07499834553656824
1301.292969,0.07690714652867404
