Raman Shift (cm-1),Fitted Intensity
171.300781,0.039058697867365606
173.222656,0.04207545512217494
175.146484,0.04549536842327617
177.068359,0.04936167768100825
178.990234,0.05372667410079255
180.910156,0.05862916457759375
182.832031,0.06411327483291114
184.751953,0.07018616854674667
186.671875,0.0768491104514307
188.591797,0.08406926536309972
190.511719,0.09177925410885963
192.429688,0.0998648405745493
194.347656,0.10818863751990658
196.265625,0.11656876522357483
198.183594,0.12479319025416136
200.099609,0.13262305367078123
202.015625,0.1398320059134392
203.933594,0.14620389817840726
205.847656,0.15152918439788518
207.763672,0.15568136196076593
209.677734,0.15856792700376107
211.59375,0.16017884883048655
213.507812,0.16056491555793845
215.419922,0.15984897811995916
217.333984,0.15820348918644547
219.246094,0.1558451368667042
221.158203,0.1530078694591155
223.070312,0.1499307613291432
224.982422,0.14684004933462
226.892578,0.143938181146889
228.802734,0.1413846916598314
230.712891,0.1393005290458555
232.623047,0.13776344877373403
234.533203,0.1368100082116423
236.441406,0.1364401836017398
238.349609,0.13662209340161624
240.257812,0.13730133851408932
242.166016,0.13840632667418043
244.072266,0.13985265501192173
245.980469,0.1415545479810209
247.886719,0.14341802807678072
249.791016,0.14535365340658216
251.697266,0.14728012738058588
253.601562,0.14911381222846595
255.507812,0.15078537582645393
257.412109,0.15222595869099967
259.314453,0.15337913499375022
261.21875,0.15419867222761635
263.121094,0.15464318047073428
265.023438,0.15468296649040508
266.925781,0.15429629799115796
268.828125,0.1534703193241053
270.728516,0.15220234774352848
272.628906,0.1504958042360771
274.529297,0.148362458620796
276.429688,0.14582117655015828
278.330078,0.1428971615212407
280.228516,0.13962462730612749
282.126953,0.13603587731885475
284.025391,0.13216956066631055
285.923828,0.12806686533418202
287.822266,0.12377049807259277
289.71875,0.11932836727528727
291.615234,0.11477892066130552
293.511719,0.11016374917082274
295.40625,0.1055273166131743
297.302734,0.10089717716885332
299.197266,0.09631690645474879
301.091797,0.09181234782339623
302.986328,0.0874104729013514
304.878906,0.08313881171109005
306.773438,0.07900791636667075
308.666016,0.07504192003712203
310.558594,0.07124850275582306
312.449219,0.06763995159016227
314.341797,0.06421436664336738
316.232422,0.06098158005244037
318.123047,0.057938261974994375
320.013672,0.055082593236515105
321.904297,0.0524109676297031
323.792969,0.0499208005666478
325.681641,0.04760303207063233
327.570312,0.04545058726488024
329.458984,0.043455772851635245
331.347656,0.04161050974154366
333.234375,0.03990821613803161
335.121094,0.038338632723725286
337.007812,0.03689359457078879
338.894531,0.03556515471016013
340.779297,0.034346883711862716
342.664062,0.03323010347177727
344.548828,0.03220798479320903
346.433594,0.0312741476183222
348.318359,0.030422676879170225
350.201172,0.02964889339860641
352.085938,0.028946225871842285
353.96875,0.028311635829552113
355.849609,0.02774088238995369
357.732422,0.027229187131153916
359.613281,0.0267744510105921
361.494141,0.02637336755146122
363.375,0.026023594192647607
365.255859,0.025723180720126897
367.134766,0.02547080253003161
369.015625,0.025264760096253752
370.894531,0.025104697384304625
372.773438,0.024989993463198003
374.650391,0.02492073239368773
376.529297,0.0248972513069933
378.40625,0.024920563902916505
380.283203,0.024992122328805516
382.160156,0.025114032454209748
384.035156,0.025288883923326205
385.912109,0.02552064647338583
387.787109,0.02581338694262194
389.662109,0.02617298561829483
391.537109,0.026606449923580647
393.410156,0.027121796922079815
395.283203,0.027729893309093187
397.15625,0.02844339784961466
399.029297,0.029277507075408857
400.902344,0.030250262720550543
402.773438,0.03138150098160699
404.646484,0.0326977836716973
406.517578,0.0342234019314522
408.388672,0.03598883540724854
410.257812,0.03802196153693618
412.128906,0.04035613367311716
413.998047,0.0430117317411105
415.867188,0.04600885748853488
417.736328,0.0493536552029178
419.603516,0.05303194127993389
421.470703,0.05701615853918036
423.339844,0.061255632612327186
425.207031,0.0656598424858651
427.072266,0.07012085194024227
428.939453,0.07451786743359526
430.804688,0.078695659442844
432.669922,0.08250637797747548
434.535156,0.0858026186654085
436.400391,0.08845475687550096
438.263672,0.0903614944593328
440.126953,0.09146629976969249
441.990234,0.0917555766381908
443.853516,0.09126367616920636
445.716797,0.09007002583431543
447.578125,0.08829406812063942
449.439453,0.08607922937551943
451.300781,0.08358506290935609
453.162109,0.08097407145114907
455.023438,0.07840075138207667
456.882812,0.07600545604338178
458.742188,0.07390104537898973
460.601562,0.07217891098229107
462.460938,0.07090671752887968
464.318359,0.07013165793886907
466.177734,0.06988184195249836
468.035156,0.07017545117330883
469.892578,0.07102238352283569
471.748047,0.07242850009801738
473.605469,0.07440525335757907
475.460938,0.07696061374125389
477.316406,0.0801140139763374
479.171875,0.0838897016491124
481.025391,0.0883137627433522
482.880859,0.09343301323221286
484.734375,0.09927944093550278
486.587891,0.10590436797375366
488.441406,0.11335533085682066
490.292969,0.12166890449188571
492.146484,0.13090310957590484
493.998047,0.14106958625496036
495.849609,0.15219480753083303
497.701172,0.16427749530292263
499.550781,0.1772789165461748
501.402344,0.19117451345857203
503.251953,0.20585189701721815
505.101562,0.22120874656599318
506.949219,0.23707710443929733
508.798828,0.2533062564061907
510.646484,0.26964777250767097
512.494141,0.28587998927646724
514.341797,0.30174727126847134
516.189453,0.31698675866932735
518.035156,0.33132494254336226
519.880859,0.34453622951727153
521.728516,0.35641838581395335
523.572266,0.36676128446553097
525.417969,0.37547423779613515
527.261719,0.38246849709988223
529.107422,0.3877475884003505
530.951172,0.3913480662211875
532.792969,0.39337789108170307
534.636719,0.39399180699725805
536.478516,0.39337595577684814
538.322266,0.39174126048438873
540.164062,0.38931350280975496
542.003906,0.3863129568199258
543.845703,0.3829334978788983
545.685547,0.37935274158583493
547.525391,0.37569874722359964
549.365234,0.3720579945621504
551.205078,0.3684692203506872
553.044922,0.364924200690411
554.882812,0.3613756100869537
556.720703,0.3577328220453587
558.558594,0.35388219724241704
560.396484,0.34969377551616343
562.232422,0.3450376057775442
564.068359,0.339780299555643
565.90625,0.333801446012761
567.740234,0.32703155115851723
569.576172,0.31939063282989927
571.412109,0.31085991785367006
573.246094,0.30146001358402963
575.080078,0.2912272711020854
576.914062,0.2802386024882033
578.746094,0.26861104859328694
580.580078,0.2564456767023346
582.412109,0.24390904796933432
584.244141,0.2311371253705163
586.076172,0.2182800640039455
587.90625,0.2054969409179434
589.738281,0.19289604785126135
591.568359,0.18062569977244583
593.398438,0.16877680057874286
595.228516,0.15743520723795376
597.056641,0.14667864478769013
598.886719,0.1365317108200851
600.714844,0.12704580351933537
602.542969,0.11822344901260542
604.371094,0.11006446863539458
606.197266,0.10256485831900028
608.025391,0.09568784374528548
609.851562,0.08942072936237211
611.677734,0.08372397632541999
613.503906,0.0785632289213972
615.328125,0.07390807689640158
617.152344,0.06971839154032873
618.978516,0.06595799013689868
620.800781,0.06260891952298012
622.625,0.05963442149459511
624.449219,0.057017925520219934
626.271484,0.05474740446904836
628.09375,0.052813141726255154
629.916016,0.05121799671564463
631.738281,0.04997760010208291
633.558594,0.04912609918634513
635.380859,0.04872093067609507
637.201172,0.0488601988742179
639.021484,0.049695271106503514
640.839844,0.051448581755447746
642.660156,0.05442762396442535
644.478516,0.058976247680690444
646.296875,0.06539005328542606
648.115234,0.0737201751803106
649.933594,0.08357155318447106
651.75,0.09402083962975095
653.566406,0.10387481812112104
655.382812,0.11214386464617111
657.199219,0.11856043979965625
659.015625,0.12366241458111456
660.830078,0.12824201304820865
662.646484,0.13249534331741478
664.460938,0.1354792628566472
666.275391,0.1355042195940685
668.087891,0.1311883478332955
669.902344,0.12243987932492209
671.714844,0.11069613266992731
673.527344,0.098182580802211
675.339844,0.08695354188338693
677.150391,0.07824368858140295
678.962891,0.07236167944633842
680.773438,0.06905565278507565
682.583984,0.06782799046955493
684.394531,0.06820414394932678
686.205078,0.06981984761240871
688.013672,0.0724239105593129
689.822266,0.07585968948232238
691.630859,0.08002960053787218
693.439453,0.08487430901446603
695.248047,0.09035822397745571
697.054688,0.09645344133244635
698.861328,0.10315340840725608
700.667969,0.11045104798474693
702.474609,0.11834179536109589
704.28125,0.12682186017537841
706.085938,0.13587678623578314
707.890625,0.14550957355734773
709.695312,0.15571209548105805
711.5,0.16647332452715724
713.304688,0.1777788233563096
715.107422,0.18959727607564794
716.910156,0.20191836873872845
718.712891,0.21471552167054725
720.515625,0.22795765608200153
722.318359,0.24160916055335846
724.119141,0.2556145016414308
725.919922,0.26994375712474056
727.720703,0.2845481888908744
729.521484,0.29937505925303315
731.322266,0.31436802333869596
733.121094,0.3294511758611398
734.919922,0.3445789304595666
736.71875,0.35968779589721656
738.517578,0.3747135298329579
740.316406,0.3895923507282104
742.113281,0.4042466955045544
743.910156,0.4186352748874939
745.707031,0.4327073566276796
747.503906,0.44642295533103216
749.300781,0.45975872990763295
751.095703,0.47270336144541913
752.890625,0.4853151601893706
754.685547,0.49770503702017166
756.480469,0.510098222296844
758.275391,0.5229195071033301
760.068359,0.5369233516012872
761.861328,0.5534152238040961
763.654297,0.5739746412100318
765.447266,0.5976590553326001
767.240234,0.6139677182989645
769.03125,0.6111357257054824
770.822266,0.598871134813416
772.613281,0.5898641479674663
774.404297,0.5868880706182534
776.195312,0.5897269085963779
777.984375,0.5991793595589866
779.773438,0.6184683460497874
781.5625,0.6551025049061638
783.351562,0.7244164424683069
785.140625,0.8486772326346282
786.927734,1.0005852301690785
788.714844,1.001002269044697
790.501953,0.8518460427105977
792.289062,0.7382891515210754
794.076172,0.6951635227163618
795.861328,0.6997929864463432
797.646484,0.6944292866066406
799.433594,0.6304331962639219
801.216797,0.5552448236964215
803.001953,0.5009414252967005
804.785156,0.4645376560825386
806.570312,0.43896975370718244
808.353516,0.4200382695330835
810.136719,0.40546370365641354
811.917969,0.39408057752811587
813.701172,0.38524045600720686
815.482422,0.3786296523460645
817.263672,0.3740580164504001
819.044922,0.371425355798731
820.824219,0.370666263119076
822.605469,0.3717209660024169
824.384766,0.374517600904346
826.164062,0.3789627515606068
827.943359,0.3849307593350036
829.722656,0.39225995317202306
831.5,0.40074276384218294
833.279297,0.4101681537611105
835.056641,0.42026134096411627
836.832031,0.4307524066265089
838.609375,0.4413950444700963
840.386719,0.4519206442004687
842.162109,0.46208730670105563
843.9375,0.47171502265623444
845.712891,0.48066023689829374
847.488281,0.48883348103973473
849.261719,0.4961933403900493
851.035156,0.5027682498168584
852.810547,0.5086290490943429
854.582031,0.5138577653086073
856.355469,0.518596126044632
858.128906,0.5229714424567711
859.900391,0.5271097374448392
861.671875,0.5311319270204413
863.443359,0.5351309680785845
865.214844,0.5391709242407662
866.984375,0.5432795429160346
868.755859,0.5474666020272654
870.525391,0.5516946406218183
872.294922,0.5559156883713241
874.064453,0.5600587953086421
875.832031,0.5640369952594746
877.601562,0.5677716514030752
879.369141,0.5711691934564341
881.136719,0.5741570286914566
882.904297,0.5766726443150101
884.669922,0.5786714911544644
886.4375,0.5801404225815687
888.203125,0.5810885098346069
889.96875,0.5815643436675824
891.734375,0.5816528648058882
893.498047,0.5814802082353224
895.263672,0.5812128182257257
897.027344,0.5810550482690796
898.791016,0.5812374341734496
900.554688,0.5820001984947863
902.316406,0.5835641380077019
904.080078,0.5861043437494108
905.841797,0.589698225985526
907.603516,0.5943103603691714
909.365234,0.5997657090612801
911.126953,0.6057619612621624
912.886719,0.611907574912451
914.646484,0.6178222677302007
916.408203,0.6232228838956961
918.166016,0.6279997494742527
919.925781,0.6323343152751572
921.685547,0.6366330479145914
923.443359,0.6414489431473887
925.201172,0.6473064600365595
926.958984,0.654465710537527
928.716797,0.6627415845433555
930.472656,0.6714315299704624
932.230469,0.6794755095874908
933.986328,0.6856881158481809
935.742188,0.6892014968587562
937.496094,0.689721086384929
939.251953,0.6875622188134233
941.005859,0.6833252758107368
942.761719,0.6772787021638107
944.515625,0.6687943153037045
946.267578,0.6560829523493515
948.021484,0.6365254099159717
949.773438,0.6077103201980041
951.527344,0.56834900816845
953.279297,0.5192860630032536
955.029297,0.463299773099133
956.78125,0.4042910179329059
958.533203,0.3465350989935606
960.283203,0.293502661384075
962.033203,0.24719424141152832
963.783203,0.20831252482966947
965.53125,0.17655613372124823
967.28125,0.15093529676607997
969.029297,0.13039306476064005
970.777344,0.11383787599802908
972.525391,0.10037919448187012
974.273438,0.0893202223499707
976.019531,0.0801456346725369
977.767578,0.07244607920393267
979.513672,0.06595059158858252
981.259766,0.06043378356446687
983.005859,0.055730928443258054
984.75,0.0517182919180024
986.496094,0.048285947886214875
988.240234,0.04536064889429055
989.984375,0.04287239593737779
991.728516,0.040766894491353255
993.470703,0.03900070632825735
995.214844,0.03753186184198978
996.957031,0.036331499950711346
998.699219,0.035370423620504285
1000.441406,0.03462514635815161
1002.181641,0.034075939311445716
1003.923828,0.03370406102476041
1005.664062,0.03349513955946329
1007.404297,0.03343538885348258
1009.144531,0.0335131544144355
1010.884766,0.033718145947415
1012.623047,0.03404079430198082
1014.363281,0.03447364850069674
1016.101562,0.03500836889516918
1017.839844,0.0356386749399467
1019.576172,0.03635753470898698
1021.314453,0.03716082150377191
1023.050781,0.03804132599273865
1024.787109,0.03899475585294816
1026.523438,0.04001614314659321
1028.259766,0.041100638500770406
1029.996094,0.04224346346323585
1031.730469,0.04343849110323502
1033.464844,0.0446822286447305
1035.199219,0.04596989175847438
1036.933594,0.047296635941181546
1038.667969,0.04865754024349592
1040.400391,0.050046016723329124
1042.134766,0.05146009968613785
1043.867188,0.0528914223730152
1045.599609,0.05433629651982508
1047.330078,0.055787733497763774
1049.0625,0.05724359293181417
1050.792969,0.05869512830595401
1052.523438,0.0601384824706808
1054.253906,0.0615681381307008
1055.984375,0.06297858441199121
1057.712891,0.06436278853431053
1059.443359,0.065718453656578
1061.171875,0.06703718777968501
1062.900391,0.0683153202915585
1064.628906,0.06954777254254729
1066.355469,0.07072833232553623
1068.083984,0.07185496352118906
1069.810547,0.0729206502215738
1071.537109,0.0739224842668843
1073.263672,0.07485653708884529
1074.990234,0.07571918596555721
1076.714844,0.07650629463389956
1078.439453,0.07721595409998984
1080.164062,0.07784561320416658
1081.888672,0.0783931115748624
1083.613281,0.07885669408160978
1085.337891,0.0792350253978216
1087.060547,0.07952691551867534
1088.783203,0.07973237005287644
1090.505859,0.07985135381758689
1092.228516,0.0798842683110022
1093.951172,0.07983194892943626
1095.671875,0.07969586067339382
1097.392578,0.07947766895815919
1099.113281,0.07917945582161327
1100.833984,0.07880369395657015
1102.554688,0.07835322899235955
1104.273438,0.07783189225716712
1105.992188,0.07724273183188109
1107.712891,0.07658879347833063
1109.429688,0.07587650986559072
1111.148438,0.07510790207425773
1112.867188,0.07428832074756127
1114.583984,0.07342353897976633
1116.300781,0.07251755951593321
1118.017578,0.0715754167196353
1119.734375,0.07060223919937021
1121.449219,0.06960436728374156
1123.166016,0.06858474482188559
1124.880859,0.06755090016078392
1126.595703,0.06650685432301287
1128.310547,0.06545771804143774
1130.025391,0.06440851161940139
1131.738281,0.06336532376038762
1133.451172,0.06233170175038298
1135.164062,0.061312225074667395
1136.876953,0.06031128263324393
1138.589844,0.05933305666208898
1140.302734,0.05838150259138793
1142.013672,0.057461362834489056
1143.724609,0.05657498060700643
1145.435547,0.05572552979985077
1147.146484,0.05491590830533303
1148.855469,0.05414957678359058
1150.566406,0.0534271018038579
1152.275391,0.05275215080083257
1153.984375,0.05212559449243173
1155.693359,0.05154885663300652
1157.402344,0.051023066331769985
1159.109375,0.05054957401159744
1160.816406,0.05012829875121006
1162.525391,0.049759118935828336
1164.230469,0.049443209434125696
1165.9375,0.04917913069424103
1167.644531,0.04896675800533746
1169.349609,0.048805488947874
1171.054688,0.04869406632746773
1172.759766,0.048631289298571495
1174.464844,0.048615753929543544
1176.169922,0.04864586747365428
1177.873047,0.04871975367492367
1179.576172,0.048835501416754384
1181.28125,0.04899124787323197
1182.982422,0.049184200855520034
1184.685547,0.049412658446926265
1186.388672,0.04967402110237997
1188.089844,0.049965458534430414
1189.791016,0.05028471757289113
1191.492188,0.05062921584803574
1193.193359,0.05099633864062522
1194.892578,0.0513830004127838
1196.59375,0.05178745985433652
1198.292969,0.05220617589974811
1199.992188,0.052637021402460446
1201.691406,0.05307745580483859
1203.390625,0.053524994338786575
1205.087891,0.053976697529996204
1206.785156,0.05443074571563532
1208.482422,0.054884899398634716
1210.179688,0.0553370185387607
1211.876953,0.05578507255174528
1213.574219,0.056227149296859465
1215.269531,0.05666096576110721
1216.964844,0.05708538362178464
1218.660156,0.057498886335541115
1220.355469,0.05790009746788753
1222.050781,0.058287781489948655
1223.744141,0.05866042632785875
1225.4375,0.0590175418760101
1227.130859,0.05935832701209325
1228.824219,0.05968212204403659
1230.517578,0.05998840577640177
1232.210938,0.060276793549894084
1233.902344,0.06054673056725983
1235.59375,0.060798433987667655
1237.285156,0.061031898793086244
1238.976562,0.06124723502293089
1240.667969,0.06144466152601271
1242.357422,0.06162430113421213
1244.046875,0.06178680645613581
1245.736328,0.06193267921665784
1247.425781,0.062062501425721776
1249.115234,0.06217692818144937
1250.802734,0.06227657340344731
1252.492188,0.062362447017792484
1254.179688,0.062435180420385296
1255.867188,0.06249575546587522
1257.554688,0.06254508598961955
1259.240234,0.06258407948480518
1260.927734,0.06261380024936287
1262.613281,0.06263517436764686
1264.298828,0.06264925314221675
1265.984375,0.06265706171435875
1267.667969,0.06265963440553227
1269.353516,0.06265801689831461
1271.037109,0.06265325401802116
1272.720703,0.06264638648251353
1274.404297,0.06263845270170118
1276.087891,0.06263048722969677
1277.771484,0.06262351923994221
1279.453125,0.06261857549725723
1281.134766,0.06261665878075073
1282.816406,0.0626187727566557
1284.498047,0.06262591285053588
1286.179688,0.0626390662193339
1287.859375,0.06265918412765047
1289.541016,0.06268728393797522
1291.220703,0.06272426243816448
1292.900391,0.06277110250811141
1294.580078,0.06282875391178898
1296.257812,0.06289807450974512
1297.9375,0.06298016768893605
1299.615234,0.06307578138573411
1301.292969,0.06318594148149966
1302.970703,0.06331158702245011
1304.646484,0.06345348475983567
1306.324219,0.06361291095479936
1308.0,0.06379044408220669
1309.675781,0.0639872158514425
1311.351562,0.06420419150114708
1313.027344,0.06444234680232655
1314.703125,0.06470266887575472
1316.376953,0.06498581408885114
1318.050781,0.06529308395490052
1319.724609,0.06562550494864546
1321.398438,0.06598411988212326
1323.072266,0.0663699876818681
1324.744141,0.06678368485971149
1326.417969,0.06722727064066893
